# OpenSignals Text File Format. Version 1
# {"00:07:80:0F:31:9C": {"position": 0, "device": "biosignalsplux", "device name": "00:07:80:0F:31:9C", "device connection": "BTH00:07:80:0F:31:9C", "sampling rate": 1000, "resolution": [16, 16], "firmware version": 775, "comments": "", "keywords": "", "mode": 0, "sync interval": 2, "date": "2026-5-25", "time": "15:13:44.514", "channels": [1, 2], "sensor": ["ECG", "EDA"], "label": ["CH1", "CH2"], "column": ["nSeq", "DI", "CH1", "CH2"], "special": [{"SpO2": [80, 40, 5, 4, 3, 3]}, {"SpO2": [80, 40, 5, 4, 3, 3]}, {"SpO2": [80, 40, 5, 4, 3, 3]}, {"SpO2": [80, 40, 5, 4, 3, 3]}, {"SpO2": [80, 40, 5, 4, 3, 3]}, {"SpO2": [80, 40, 5, 4, 3, 3]}, {"SpO2": [80, 40, 5, 4, 3, 3]}, {"SpO2": [80, 40, 5, 4, 3, 3]}], "digital IO": [0, 1], "sleeve color": ["dark_blue", "red"], "convertedValues": 0}}
# EndOfHeader
0	0	33156	25598	
1	0	33092	25601	
2	0	33060	25596	
3	0	33004	25596	
4	0	32896	25595	
5	0	32816	25599	
6	0	32864	25601	
7	0	32972	25596	
8	0	33112	25589	
9	0	33165	25588	
10	0	33104	25596	
11	0	32988	25596	
12	0	32964	25590	
13	0	32948	25597	
14	0	32928	25599	
15	0	33012	25595	
16	0	33176	25597	
17	0	33372	25597	
18	0	33516	25586	
19	0	33528	25596	
20	0	33416	25592	
21	0	33192	25584	
22	0	33152	25593	
23	0	33260	25594	
24	0	33400	25591	
25	0	33416	25582	
26	0	33388	25596	
27	0	33260	25590	
28	0	33008	25589	
29	0	32832	25596	
30	0	32848	25591	
31	0	32922	25584	
32	0	32928	25596	
33	0	32864	25601	
34	0	32844	25593	
35	0	32792	25590	
36	0	32732	25592	
37	0	32672	25591	
38	0	32612	25588	
39	0	32452	25588	
40	0	32124	25593	
41	0	31848	25590	
42	0	31745	25594	
43	0	31816	25596	
44	0	31908	25592	
45	0	32084	25582	
46	0	32164	25592	
47	0	32052	25590	
48	0	32108	25581	
49	0	32278	25576	
50	0	32472	25586	
51	0	32540	25585	
52	0	32464	25595	
53	0	32388	25585	
54	0	32408	25591	
55	0	32541	25583	
56	0	32720	25588	
57	0	32816	25585	
58	0	32856	25576	
59	0	32824	25581	
60	0	32832	25582	
61	0	32844	25584	
62	0	32816	25572	
63	0	32912	25584	
64	0	32976	25576	
65	0	32884	25575	
66	0	32664	25580	
67	0	32528	25584	
68	0	32528	25589	
69	0	32608	25580	
70	0	32736	25588	
71	0	32860	25586	
72	0	33008	25584	
73	0	33176	25584	
74	0	33176	25589	
75	0	33044	25587	
76	0	33040	25574	
77	0	33080	25582	
78	0	33201	25578	
79	0	33332	25577	
80	0	33349	25580	
81	0	33292	25584	
82	0	33340	25575	
83	0	33452	25581	
84	0	33580	25575	
85	0	33564	25580	
86	0	33470	25569	
87	0	33352	25583	
88	0	33132	25578	
89	0	32816	25574	
90	0	32472	25584	
91	0	32196	25581	
92	0	31964	25582	
93	0	31640	25583	
94	0	31348	25585	
95	0	31144	25583	
96	0	31152	25580	
97	0	31157	25584	
98	0	31172	25577	
99	0	31252	25574	
100	0	31372	25569	
101	0	31440	25581	
102	0	31484	25574	
103	0	31524	25572	
104	0	31544	25568	
105	0	31572	25580	
106	0	31540	25580	
107	0	31580	25574	
108	0	31584	25587	
109	0	31528	25582	
110	0	31496	25580	
111	0	31428	25576	
112	0	31452	25580	
113	0	31464	25585	
114	0	31436	25586	
115	0	31392	25580	
116	0	31336	25588	
117	0	31360	25580	
118	0	31388	25584	
119	0	31476	25583	
120	0	31616	25580	
121	0	31864	25581	
122	0	32104	25583	
123	0	32196	25578	
124	0	32253	25581	
125	0	32280	25579	
126	0	32308	25583	
127	0	32310	25575	
128	0	32244	25585	
129	0	32160	25588	
130	0	32180	25578	
131	0	32288	25580	
132	0	32264	25590	
133	0	32292	25576	
134	0	32368	25580	
135	0	32348	25593	
136	0	32288	25583	
137	0	32224	25583	
138	0	32056	25588	
139	0	31928	25578	
140	0	31776	25576	
141	0	31664	25584	
142	0	31544	25582	
143	0	31492	25578	
144	0	31412	25580	
145	0	31372	25578	
146	0	31336	25578	
147	0	31344	25583	
148	0	31352	25585	
149	0	31340	25576	
150	0	31352	25578	
151	0	31488	25576	
152	0	31604	25585	
153	0	31660	25575	
154	0	31736	25577	
155	0	31852	25578	
156	0	31992	25570	
157	0	32216	25572	
158	0	32464	25575	
159	0	32644	25568	
160	0	32684	25570	
161	0	32640	25576	
162	0	32552	25570	
163	0	32552	25581	
164	0	32428	25572	
165	0	32240	25573	
166	0	32240	25573	
167	0	32312	25576	
168	0	32362	25578	
169	0	32484	25568	
170	0	32728	25578	
171	0	32972	25578	
172	0	33012	25577	
173	0	32984	25572	
174	0	33032	25572	
175	0	33252	25569	
176	0	33522	25568	
177	0	33584	25570	
178	0	33425	25576	
179	0	33076	25568	
180	0	32704	25578	
181	0	32413	25566	
182	0	32216	25570	
183	0	32052	25575	
184	0	31844	25568	
185	0	31664	25577	
186	0	31608	25572	
187	0	31576	25575	
188	0	31592	25575	
189	0	31664	25575	
190	0	31846	25571	
191	0	32120	25574	
192	0	32464	25578	
193	0	32776	25564	
194	0	32952	25566	
195	0	33124	25573	
196	0	33260	25560	
197	0	33336	25560	
198	0	33312	25563	
199	0	33272	25562	
200	0	33208	25567	
201	0	33104	25557	
202	0	33084	25567	
203	0	33128	25567	
204	0	33128	25564	
205	0	33168	25560	
206	0	33180	25568	
207	0	33132	25569	
208	0	33284	25560	
209	0	33496	25570	
210	0	33708	25564	
211	0	33820	25565	
212	0	33992	25556	
213	0	34288	25551	
214	0	34572	25569	
215	0	34754	25557	
216	0	34836	25558	
217	0	34816	25567	
218	0	34740	25560	
219	0	34636	25567	
220	0	34516	25554	
221	0	34460	25559	
222	0	34516	25552	
223	0	34604	25554	
224	0	34512	25566	
225	0	34224	25563	
226	0	33808	25564	
227	0	33536	25556	
228	0	33430	25562	
229	0	33412	25564	
230	0	33316	25570	
231	0	33128	25558	
232	0	33056	25562	
233	0	33072	25562	
234	0	33094	25562	
235	0	33194	25560	
236	0	33372	25561	
237	0	33540	25560	
238	0	33488	25558	
239	0	33316	25562	
240	0	33272	25556	
241	0	33292	25565	
242	0	33304	25565	
243	0	33280	25566	
244	0	33492	25559	
245	0	33896	25556	
246	0	34236	25565	
247	0	34404	25564	
248	0	34436	25566	
249	0	34480	25548	
250	0	34588	25555	
251	0	34728	25556	
252	0	34792	25562	
253	0	34808	25554	
254	0	34800	25546	
255	0	34728	25565	
256	0	34440	25554	
257	0	34120	25548	
258	0	33804	25556	
259	0	33576	25559	
260	0	33464	25550	
261	0	33484	25557	
262	0	33460	25556	
263	0	33416	25551	
264	0	33460	25554	
265	0	33460	25550	
266	0	33464	25556	
267	0	33392	25557	
268	0	33376	25560	
269	0	33512	25552	
270	0	33700	25559	
271	0	34000	25556	
272	0	34240	25552	
273	0	34276	25564	
274	0	34224	25559	
275	0	34176	25554	
276	0	34280	25554	
277	0	34184	25557	
278	0	34032	25562	
279	0	33844	25555	
280	0	33672	25548	
281	0	33628	25548	
282	0	33652	25556	
283	0	33684	25546	
284	0	33708	25551	
285	0	33644	25550	
286	0	33548	25545	
287	0	33456	25549	
288	0	33440	25544	
289	0	33524	25542	
290	0	33684	25545	
291	0	33652	25553	
292	0	33668	25544	
293	0	33624	25544	
294	0	33492	25549	
295	0	33464	25545	
296	0	33724	25548	
297	0	34028	25537	
298	0	33984	25549	
299	0	33804	25548	
300	0	33632	25543	
301	0	33508	25548	
302	0	33301	25548	
303	0	33136	25536	
304	0	33040	25546	
305	0	33004	25546	
306	0	33024	25540	
307	0	32960	25546	
308	0	32916	25544	
309	0	32864	25549	
310	0	32764	25550	
311	0	32728	25540	
312	0	32660	25543	
313	0	32664	25548	
314	0	32952	25540	
315	0	33496	25544	
316	0	34236	25548	
317	0	34796	25540	
318	0	35272	25530	
319	0	35696	25545	
320	0	35904	25541	
321	0	35920	25538	
322	0	35756	25527	
323	0	35476	25542	
324	0	35128	25537	
325	0	34725	25544	
326	0	34248	25543	
327	0	33700	25540	
328	0	33152	25525	
329	0	32600	25550	
330	0	32284	25534	
331	0	32056	25544	
332	0	31752	25534	
333	0	31704	25538	
334	0	31892	25545	
335	0	31956	25542	
336	0	32056	25536	
337	0	32264	25540	
338	0	32464	25537	
339	0	32716	25534	
340	0	33088	25533	
341	0	33392	25533	
342	0	33596	25544	
343	0	33648	25542	
344	0	33592	25540	
345	0	33680	25540	
346	0	33812	25534	
347	0	33912	25537	
348	0	34012	25542	
349	0	34152	25540	
350	0	34356	25540	
351	0	34460	25536	
352	0	34460	25545	
353	0	34428	25537	
354	0	34452	25536	
355	0	34536	25542	
356	0	34880	25542	
357	0	35306	25527	
358	0	35456	25549	
359	0	35368	25537	
360	0	35220	25532	
361	0	34936	25545	
362	0	34700	25540	
363	0	34420	25535	
364	0	33896	25551	
365	0	33304	25551	
366	0	32786	25536	
367	0	32380	25547	
368	0	31921	25549	
369	0	31410	25543	
370	0	30988	25545	
371	0	30748	25549	
372	0	30760	25542	
373	0	30864	25547	
374	0	30880	25544	
375	0	30840	25543	
376	0	30868	25541	
377	0	30916	25543	
378	0	31096	25547	
379	0	31424	25536	
380	0	31734	25540	
381	0	31924	25540	
382	0	32016	25528	
383	0	32008	25540	
384	0	32008	25539	
385	0	31986	25537	
386	0	32040	25510	
387	0	32184	25543	
388	0	32440	25543	
389	0	32580	25547	
390	0	32600	25544	
391	0	32610	25540	
392	0	32700	25550	
393	0	32752	25550	
394	0	32824	25551	
395	0	32908	25541	
396	0	32976	25536	
397	0	33048	25549	
398	0	33116	25546	
399	0	33148	25540	
400	0	33096	25532	
401	0	33064	25536	
402	0	33072	25538	
403	0	33072	25543	
404	0	33040	25533	
405	0	32976	25548	
406	0	32964	25543	
407	0	32996	25532	
408	0	32988	25541	
409	0	32996	25543	
410	0	33136	25532	
411	0	33353	25542	
412	0	33364	25540	
413	0	33312	25540	
414	0	33260	25548	
415	0	33216	25543	
416	0	33244	25532	
417	0	33268	25540	
418	0	33288	25539	
419	0	33364	25530	
420	0	33464	25541	
421	0	33616	25540	
422	0	33728	25536	
423	0	33700	25534	
424	0	33548	25516	
425	0	33392	25540	
426	0	33412	25532	
427	0	33432	25530	
428	0	33384	25534	
429	0	33412	25540	
430	0	33496	25542	
431	0	33528	25537	
432	0	33458	25540	
433	0	33356	25543	
434	0	33352	25542	
435	0	33420	25532	
436	0	33484	25544	
437	0	33564	25543	
438	0	33580	25544	
439	0	33496	25532	
440	0	33412	25543	
441	0	33220	25538	
442	0	33196	25540	
443	0	33236	25527	
444	0	33250	25537	
445	0	33236	25542	
446	0	33240	25534	
447	0	33268	25539	
448	0	33280	25534	
449	0	33324	25532	
450	0	33372	25540	
451	0	33412	25538	
452	0	33364	25528	
453	0	33336	25528	
454	0	33336	25541	
455	0	33360	25539	
456	0	33428	25529	
457	0	33408	25541	
458	0	33390	25532	
459	0	33372	25533	
460	0	33348	25532	
461	0	33328	25530	
462	0	33320	25541	
463	0	33344	25537	
464	0	33392	25530	
465	0	33438	25543	
466	0	33400	25542	
467	0	33368	25535	
468	0	33352	25528	
469	0	33312	25539	
470	0	33228	25542	
471	0	33248	25540	
472	0	33296	25543	
473	0	33112	25538	
474	0	32976	25532	
475	0	32988	25540	
476	0	33032	25542	
477	0	33148	25541	
478	0	33216	25533	
479	0	33208	25541	
480	0	33148	25534	
481	0	33132	25534	
482	0	33108	25541	
483	0	33084	25536	
484	0	33114	25540	
485	0	32996	25510	
486	0	32884	25546	
487	0	32800	25541	
488	0	32784	25539	
489	0	32832	25543	
490	0	32872	25546	
491	0	32796	25551	
492	0	32648	25536	
493	0	32560	25550	
494	0	32708	25542	
495	0	32736	25548	
496	0	32740	25540	
497	0	32784	25543	
498	0	32848	25542	
499	0	32892	25539	
500	0	32832	25550	
501	0	32688	25543	
502	0	32660	25536	
503	0	32698	25546	
504	0	32613	25538	
505	0	32608	25539	
506	0	32576	25543	
507	0	32480	25544	
508	0	32404	25542	
509	0	32372	25541	
510	0	32440	25541	
511	0	32500	25549	
512	0	32504	25543	
513	0	32416	25544	
514	0	32260	25543	
515	0	32232	25553	
516	0	32244	25550	
517	0	32240	25536	
518	0	32336	25548	
519	0	32388	25545	
520	0	32408	25540	
521	0	32442	25553	
522	0	32492	25549	
523	0	32516	25554	
524	0	32480	25546	
525	0	32448	25555	
526	0	32456	25553	
527	0	32368	25546	
528	0	32416	25552	
529	0	32544	25558	
530	0	32572	25556	
531	0	32520	25555	
532	0	32356	25561	
533	0	32264	25557	
534	0	32196	25555	
535	0	32040	25560	
536	0	31936	25552	
537	0	31912	25554	
538	0	31944	25554	
539	0	32100	25552	
540	0	32208	25557	
541	0	32113	25548	
542	0	31924	25564	
543	0	31932	25559	
544	0	32076	25552	
545	0	32304	25560	
546	0	32360	25564	
547	0	32308	25554	
548	0	32178	25564	
549	0	32120	25557	
550	0	32136	25554	
551	0	32196	25558	
552	0	32352	25558	
553	0	32336	25559	
554	0	32328	25556	
555	0	32248	25560	
556	0	32056	25560	
557	0	31980	25548	
558	0	32084	25554	
559	0	32172	25548	
560	0	32233	25556	
561	0	32296	25548	
562	0	32330	25558	
563	0	32376	25558	
564	0	32548	25563	
565	0	32640	25554	
566	0	32800	25557	
567	0	32996	25561	
568	0	33204	25548	
569	0	33356	25560	
570	0	33404	25558	
571	0	33356	25562	
572	0	33366	25560	
573	0	33200	25558	
574	0	33020	25562	
575	0	33044	25558	
576	0	33128	25565	
577	0	33222	25563	
578	0	33280	25558	
579	0	33324	25559	
580	0	33256	25554	
581	0	33228	25560	
582	0	33234	25560	
583	0	33324	25532	
584	0	33448	25557	
585	0	33568	25553	
586	0	33696	25557	
587	0	33861	25555	
588	0	34024	25560	
589	0	34320	25554	
590	0	34676	25562	
591	0	35088	25556	
592	0	35312	25540	
593	0	35304	25558	
594	0	35198	25554	
595	0	35004	25566	
596	0	34622	25558	
597	0	34024	25572	
598	0	33192	25571	
599	0	32536	25563	
600	0	32304	25564	
601	0	32412	25559	
602	0	32780	25564	
603	0	33124	25557	
604	0	33393	25554	
605	0	33692	25562	
606	0	33892	25564	
607	0	34040	25560	
608	0	34096	25567	
609	0	34106	25564	
610	0	34052	25564	
611	0	33940	25569	
612	0	33744	25564	
613	0	33612	25572	
614	0	34012	25565	
615	0	34644	25553	
616	0	35232	25564	
617	0	35584	25558	
618	0	35692	25564	
619	0	35460	25552	
620	0	35124	25572	
621	0	34856	25566	
622	0	34536	25561	
623	0	34264	25566	
624	0	34000	25564	
625	0	33768	25571	
626	0	33592	25570	
627	0	33448	25577	
628	0	33472	25566	
629	0	33672	25580	
630	0	33736	25576	
631	0	33600	25568	
632	0	33198	25578	
633	0	32532	25575	
634	0	31712	25577	
635	0	30894	25582	
636	0	30080	25578	
637	0	29552	25586	
638	0	29240	25573	
639	0	28924	25578	
640	0	28472	25591	
641	0	27956	25592	
642	0	27324	25582	
643	0	26652	25591	
644	0	26060	25574	
645	0	25536	25600	
646	0	24972	25607	
647	0	24496	25595	
648	0	24124	25596	
649	0	23680	25607	
650	0	23196	25618	
651	0	22712	25628	
652	0	22308	25607	
653	0	22100	25628	
654	0	21980	25636	
655	0	22120	25620	
656	0	22464	25620	
657	0	23052	25630	
658	0	23892	25607	
659	0	24812	25615	
660	0	25880	25610	
661	0	27116	25600	
662	0	28480	25607	
663	0	29884	25606	
664	0	31220	25601	
665	0	32298	25600	
666	0	33336	25596	
667	0	34548	25596	
668	0	35680	25582	
669	0	36692	25593	
670	0	37504	25584	
671	0	38040	25586	
672	0	38570	25564	
673	0	38868	25580	
674	0	38764	25575	
675	0	38240	25596	
676	0	37524	25582	
677	0	36888	25574	
678	0	36696	25583	
679	0	36700	25582	
680	0	36690	25564	
681	0	36510	25588	
682	0	36148	25576	
683	0	35948	25578	
684	0	35792	25576	
685	0	35352	25590	
686	0	34752	25584	
687	0	34276	25587	
688	0	34060	25589	
689	0	34104	25587	
690	0	34308	25586	
691	0	34402	25572	
692	0	34352	25585	
693	0	34184	25582	
694	0	33988	25599	
695	0	33710	25585	
696	0	33480	25580	
697	0	33308	25595	
698	0	33112	25582	
699	0	32916	25582	
700	0	32792	25584	
701	0	32604	25585	
702	0	32148	25585	
703	0	31716	25582	
704	0	31518	25581	
705	0	31520	25587	
706	0	31568	25584	
707	0	31588	25583	
708	0	31504	25588	
709	0	31414	25588	
710	0	31520	25589	
711	0	31624	25589	
712	0	31736	25578	
713	0	31904	25592	
714	0	31908	25591	
715	0	31952	25584	
716	0	32104	25585	
717	0	32228	25594	
718	0	32364	25588	
719	0	32364	25585	
720	0	32504	25588	
721	0	32800	25588	
722	0	32888	25585	
723	0	32820	25593	
724	0	32700	25590	
725	0	32672	25586	
726	0	32920	25583	
727	0	33120	25584	
728	0	33324	25583	
729	0	33665	25580	
730	0	33856	25580	
731	0	33864	25593	
732	0	33748	25597	
733	0	33524	25585	
734	0	33270	25598	
735	0	33104	25588	
736	0	33184	25584	
737	0	33228	25595	
738	0	33200	25588	
739	0	33056	25593	
740	0	33076	25584	
741	0	33348	25588	
742	0	33434	25588	
743	0	33420	25597	
744	0	33388	25598	
745	0	33184	25593	
746	0	32932	25597	
747	0	32728	25596	
748	0	32708	25591	
749	0	32760	25597	
750	0	32912	25596	
751	0	32936	25600	
752	0	32868	25594	
753	0	32840	25602	
754	0	33036	25597	
755	0	33368	25601	
756	0	33480	25591	
757	0	33472	25604	
758	0	33340	25600	
759	0	33174	25594	
760	0	32964	25590	
761	0	32632	25596	
762	0	32344	25604	
763	0	32136	25607	
764	0	31856	25605	
765	0	31512	25601	
766	0	31226	25604	
767	0	31208	25596	
768	0	31316	25604	
769	0	31576	25604	
770	0	31984	25606	
771	0	32316	25598	
772	0	32668	25600	
773	0	32880	25601	
774	0	32920	25607	
775	0	32868	25604	
776	0	32856	25606	
777	0	32984	25593	
778	0	33248	25604	
779	0	33382	25599	
780	0	33436	25602	
781	0	33336	25616	
782	0	33076	25607	
783	0	32956	25607	
784	0	32832	25604	
785	0	32796	25607	
786	0	32676	25607	
787	0	32540	25607	
788	0	32580	25604	
789	0	32816	25607	
790	0	32904	25612	
791	0	32632	25607	
792	0	32440	25625	
793	0	32416	25613	
794	0	32332	25607	
795	0	32114	25607	
796	0	31832	25615	
797	0	31908	25606	
798	0	32263	25606	
799	0	32676	25606	
800	0	32772	25607	
801	0	32682	25607	
802	0	32460	25604	
803	0	32224	25615	
804	0	32122	25607	
805	0	32072	25607	
806	0	31932	25620	
807	0	31620	25620	
808	0	31336	25618	
809	0	31332	25607	
810	0	31592	25607	
811	0	31512	25629	
812	0	31256	25626	
813	0	31060	25625	
814	0	30944	25623	
815	0	31008	25623	
816	0	31216	25620	
817	0	31424	25623	
818	0	31508	25623	
819	0	31552	25616	
820	0	31700	25613	
821	0	31804	25626	
822	0	31976	25621	
823	0	32030	25616	
824	0	32032	25623	
825	0	32096	25622	
826	0	32096	25622	
827	0	31948	25629	
828	0	32048	25629	
829	0	32380	25624	
830	0	32284	25629	
831	0	32236	25626	
832	0	32304	25621	
833	0	32234	25634	
834	0	32172	25625	
835	0	32140	25620	
836	0	32192	25623	
837	0	32132	25631	
838	0	32212	25622	
839	0	32052	25625	
840	0	31964	25628	
841	0	32160	25627	
842	0	32212	25617	
843	0	32184	25630	
844	0	32036	25628	
845	0	31824	25633	
846	0	31692	25629	
847	0	31732	25629	
848	0	31688	25629	
849	0	31496	25630	
850	0	31520	25622	
851	0	31728	25636	
852	0	31738	25633	
853	0	31736	25628	
854	0	31792	25633	
855	0	31848	25625	
856	0	31984	25628	
857	0	32040	25635	
858	0	31972	25629	
859	0	31888	25628	
860	0	31750	25632	
861	0	31532	25631	
862	0	31364	25631	
863	0	31436	25632	
864	0	31592	25629	
865	0	31568	25635	
866	0	31472	25632	
867	0	31368	25630	
868	0	31208	25636	
869	0	31040	25630	
870	0	31108	25629	
871	0	31320	25633	
872	0	31400	25636	
873	0	31416	25633	
874	0	31592	25631	
875	0	31816	25631	
876	0	31948	25637	
877	0	31877	25634	
878	0	31928	25628	
879	0	32040	25631	
880	0	31936	25631	
881	0	31732	25628	
882	0	31576	25631	
883	0	31432	25633	
884	0	31264	25630	
885	0	31128	25632	
886	0	31156	25634	
887	0	31192	25634	
888	0	31316	25632	
889	0	31344	25639	
890	0	31328	25628	
891	0	31404	25639	
892	0	31418	25638	
893	0	31336	25642	
894	0	31420	25634	
895	0	31580	25637	
896	0	31693	25632	
897	0	31848	25625	
898	0	31968	25633	
899	0	31992	25628	
900	0	32012	25628	
901	0	31976	25630	
902	0	32108	25625	
903	0	32490	25625	
904	0	32640	25625	
905	0	32686	25624	
906	0	32608	25631	
907	0	32500	25632	
908	0	32468	25633	
909	0	32464	25623	
910	0	32556	25635	
911	0	32808	25630	
912	0	32948	25626	
913	0	32920	25628	
914	0	32808	25633	
915	0	32676	25629	
916	0	32600	25630	
917	0	32594	25630	
918	0	32420	25631	
919	0	32032	25626	
920	0	31608	25631	
921	0	31424	25632	
922	0	31264	25623	
923	0	31328	25626	
924	0	31536	25629	
925	0	31648	25630	
926	0	31764	25635	
927	0	31860	25629	
928	0	31872	25629	
929	0	31876	25632	
930	0	31886	25625	
931	0	31940	25636	
932	0	31962	25632	
933	0	32032	25626	
934	0	32148	25628	
935	0	32236	25628	
936	0	32344	25628	
937	0	32532	25622	
938	0	32776	25629	
939	0	33064	25623	
940	0	33568	25607	
941	0	33924	25619	
942	0	34048	25617	
943	0	34072	25621	
944	0	34140	25606	
945	0	34228	25621	
946	0	34240	25620	
947	0	34216	25618	
948	0	34124	25631	
949	0	34064	25624	
950	0	34024	25613	
951	0	33744	25619	
952	0	33448	25621	
953	0	33236	25615	
954	0	33236	25618	
955	0	33520	25607	
956	0	33720	25618	
957	0	33700	25627	
958	0	33596	25607	
959	0	33566	25607	
960	0	33536	25620	
961	0	33536	25607	
962	0	33544	25620	
963	0	33592	25617	
964	0	33685	25620	
965	0	33708	25618	
966	0	33632	25607	
967	0	33704	25617	
968	0	33776	25607	
969	0	33936	25620	
970	0	34076	25616	
971	0	34072	25616	
972	0	33980	25620	
973	0	33654	25616	
974	0	33108	25624	
975	0	32712	25628	
976	0	32480	25620	
977	0	32484	25624	
978	0	32624	25620	
979	0	32682	25620	
980	0	32596	25623	
981	0	32680	25625	
982	0	32836	25614	
983	0	33096	25607	
984	0	33465	25607	
985	0	33700	25607	
986	0	33720	25607	
987	0	33764	25617	
988	0	33940	25604	
989	0	34072	25617	
990	0	34084	25607	
991	0	34020	25607	
992	0	33820	25620	
993	0	33492	25618	
994	0	33256	25607	
995	0	33260	25607	
996	0	33160	25612	
997	0	33005	25607	
998	0	32848	25623	
999	0	32808	25607	
1000	0	32968	25607	
1001	0	33100	25614	
1002	0	33220	25618	
1003	0	33064	25607	
1004	0	32864	25622	
1005	0	32888	25604	
1006	0	32844	25621	
1007	0	32696	25619	
1008	0	32600	25607	
1009	0	32712	25588	
1010	0	32920	25616	
1011	0	32952	25620	
1012	0	32888	25607	
1013	0	32892	25618	
1014	0	33040	25607	
1015	0	33192	25607	
1016	0	33382	25612	
1017	0	33600	25607	
1018	0	33744	25604	
1019	0	33756	25612	
1020	0	33848	25607	
1021	0	34080	25603	
1022	0	34284	25607	
1023	0	34480	25607	
1024	0	34556	25596	
1025	0	34656	25607	
1026	0	34796	25607	
1027	0	34964	25588	
1028	0	35040	25607	
1029	0	34812	25607	
1030	0	34580	25607	
1031	0	34504	25604	
1032	0	34474	25600	
1033	0	34376	25607	
1034	0	34272	25605	
1035	0	34148	25607	
1036	0	33976	25607	
1037	0	33744	25607	
1038	0	33440	25607	
1039	0	33200	25615	
1040	0	33046	25607	
1041	0	33010	25599	
1042	0	33084	25600	
1043	0	33088	25604	
1044	0	32964	25607	
1045	0	32908	25605	
1046	0	32896	25607	
1047	0	32796	25606	
1048	0	32760	25607	
1049	0	32776	25606	
1050	0	32768	25607	
1051	0	32780	25612	
1052	0	32772	25605	
1053	0	32752	25619	
1054	0	32808	25607	
1055	0	32968	25604	
1056	0	33020	25607	
1057	0	32964	25607	
1058	0	32908	25601	
1059	0	32884	25606	
1060	0	32860	25607	
1061	0	32888	25606	
1062	0	32964	25588	
1063	0	33024	25607	
1064	0	33080	25607	
1065	0	33028	25585	
1066	0	33028	25607	
1067	0	33024	25606	
1068	0	32913	25607	
1069	0	32784	25607	
1070	0	32604	25607	
1071	0	32456	25607	
1072	0	32444	25607	
1073	0	32400	25607	
1074	0	32496	25620	
1075	0	32692	25607	
1076	0	32788	25607	
1077	0	33008	25607	
1078	0	33220	25607	
1079	0	33224	25602	
1080	0	33037	25607	
1081	0	32800	25605	
1082	0	32668	25600	
1083	0	32624	25607	
1084	0	32424	25612	
1085	0	32332	25607	
1086	0	32248	25607	
1087	0	32168	25606	
1088	0	32178	25607	
1089	0	32136	25607	
1090	0	32052	25607	
1091	0	32032	25607	
1092	0	32156	25607	
1093	0	32260	25606	
1094	0	32412	25607	
1095	0	32500	25607	
1096	0	32564	25604	
1097	0	32620	25607	
1098	0	32620	25604	
1099	0	32624	25605	
1100	0	32676	25600	
1101	0	32748	25599	
1102	0	32720	25607	
1103	0	32784	25600	
1104	0	32912	25604	
1105	0	33048	25604	
1106	0	33076	25599	
1107	0	33024	25606	
1108	0	33028	25601	
1109	0	33056	25604	
1110	0	33040	25607	
1111	0	32996	25607	
1112	0	32984	25596	
1113	0	33000	25607	
1114	0	33108	25607	
1115	0	33138	25603	
1116	0	33144	25604	
1117	0	33072	25601	
1118	0	32900	25607	
1119	0	32772	25602	
1120	0	32748	25607	
1121	0	32856	25604	
1122	0	32966	25599	
1123	0	33016	25600	
1124	0	33060	25597	
1125	0	33064	25607	
1126	0	33040	25606	
1127	0	32976	25607	
1128	0	32970	25602	
1129	0	32996	25602	
1130	0	33088	25596	
1131	0	33124	25607	
1132	0	33056	25600	
1133	0	32932	25597	
1134	0	32896	25607	
1135	0	32900	25599	
1136	0	32960	25604	
1137	0	33040	25603	
1138	0	33128	25605	
1139	0	33172	25600	
1140	0	33192	25596	
1141	0	33168	25605	
1142	0	33108	25602	
1143	0	33128	25592	
1144	0	33124	25605	
1145	0	33128	25601	
1146	0	33160	25603	
1147	0	33144	25606	
1148	0	33132	25596	
1149	0	33128	25597	
1150	0	33216	25606	
1151	0	33320	25604	
1152	0	33292	25597	
1153	0	33144	25601	
1154	0	33068	25599	
1155	0	33152	25604	
1156	0	33248	25605	
1157	0	33284	25601	
1158	0	33248	25594	
1159	0	33164	25605	
1160	0	33188	25593	
1161	0	33224	25594	
1162	0	33224	25596	
1163	0	33204	25601	
1164	0	33164	25598	
1165	0	33138	25586	
1166	0	33104	25598	
1167	0	33140	25595	
1168	0	33148	25604	
1169	0	33172	25605	
1170	0	33260	25592	
1171	0	33344	25601	
1172	0	33364	25603	
1173	0	33316	25605	
1174	0	33308	25593	
1175	0	33364	25602	
1176	0	33428	25595	
1177	0	33456	25595	
1178	0	33356	25596	
1179	0	33224	25593	
1180	0	33168	25596	
1181	0	33164	25596	
1182	0	33112	25589	
1183	0	33096	25596	
1184	0	33124	25597	
1185	0	33188	25588	
1186	0	33180	25593	
1187	0	33176	25588	
1188	0	33192	25590	
1189	0	33228	25590	
1190	0	33284	25595	
1191	0	33272	25591	
1192	0	33294	25592	
1193	0	33324	25588	
1194	0	33312	25598	
1195	0	33228	25594	
1196	0	33247	25588	
1197	0	33198	25596	
1198	0	33144	25595	
1199	0	33024	25584	
1200	0	32844	25599	
1201	0	32768	25594	
1202	0	32784	25597	
1203	0	32896	25588	
1204	0	33020	25588	
1205	0	33064	25592	
1206	0	33104	25585	
1207	0	33124	25597	
1208	0	33144	25591	
1209	0	33180	25592	
1210	0	33232	25588	
1211	0	33184	25586	
1212	0	33114	25598	
1213	0	33112	25588	
1214	0	33084	25593	
1215	0	33048	25595	
1216	0	33100	25586	
1217	0	33148	25591	
1218	0	33124	25585	
1219	0	33108	25603	
1220	0	33052	25590	
1221	0	32992	25590	
1222	0	32976	25592	
1223	0	33008	25588	
1224	0	33040	25588	
1225	0	33124	25590	
1226	0	33149	25585	
1227	0	33104	25599	
1228	0	33092	25591	
1229	0	33072	25592	
1230	0	32988	25584	
1231	0	32904	25592	
1232	0	32784	25591	
1233	0	32696	25590	
1234	0	32660	25590	
1235	0	32620	25589	
1236	0	32641	25585	
1237	0	32748	25596	
1238	0	32908	25586	
1239	0	33042	25592	
1240	0	33064	25588	
1241	0	33000	25580	
1242	0	32972	25589	
1243	0	32984	25588	
1244	0	33052	25583	
1245	0	33040	25576	
1246	0	32994	25591	
1247	0	32960	25589	
1248	0	33012	25582	
1249	0	33108	25590	
1250	0	33152	25587	
1251	0	33092	25596	
1252	0	33020	25598	
1253	0	32933	25582	
1254	0	32940	25590	
1255	0	32992	25588	
1256	0	33024	25588	
1257	0	32980	25588	
1258	0	32780	25593	
1259	0	32636	25590	
1260	0	32584	25583	
1261	0	32660	25584	
1262	0	32756	25585	
1263	0	32775	25588	
1264	0	32688	25588	
1265	0	32636	25576	
1266	0	32536	25589	
1267	0	32440	25582	
1268	0	32420	25589	
1269	0	32489	25585	
1270	0	32612	25581	
1271	0	32680	25593	
1272	0	32716	25582	
1273	0	32766	25589	
1274	0	32812	25588	
1275	0	32932	25576	
1276	0	33004	25585	
1277	0	32960	25584	
1278	0	33004	25580	
1279	0	33096	25580	
1280	0	33058	25584	
1281	0	33040	25580	
1282	0	33008	25580	
1283	0	33092	25572	
1284	0	33172	25591	
1285	0	33226	25580	
1286	0	33228	25584	
1287	0	33164	25583	
1288	0	33188	25574	
1289	0	33256	25581	
1290	0	33328	25584	
1291	0	33384	25584	
1292	0	33336	25583	
1293	0	33256	25579	
1294	0	33268	25576	
1295	0	33312	25582	
1296	0	33404	25581	
1297	0	33584	25585	
1298	0	33734	25582	
1299	0	33840	25567	
1300	0	33928	25578	
1301	0	34055	25572	
1302	0	34100	25581	
1303	0	34096	25580	
1304	0	34040	25589	
1305	0	33908	25575	
1306	0	33928	25578	
1307	0	34064	25585	
1308	0	34080	25576	
1309	0	34116	25578	
1310	0	34144	25575	
1311	0	34108	25582	
1312	0	34104	25569	
1313	0	34152	25583	
1314	0	34152	25580	
1315	0	34076	25580	
1316	0	33960	25588	
1317	0	33852	25578	
1318	0	33836	25569	
1319	0	33868	25577	
1320	0	33900	25582	
1321	0	33876	25572	
1322	0	33832	25577	
1323	0	33804	25579	
1324	0	33780	25576	
1325	0	33780	25577	
1326	0	33772	25577	
1327	0	33817	25576	
1328	0	33908	25557	
1329	0	34008	25583	
1330	0	34048	25575	
1331	0	33964	25590	
1332	0	33804	25578	
1333	0	33652	25574	
1334	0	33608	25580	
1335	0	33612	25575	
1336	0	33628	25575	
1337	0	33700	25582	
1338	0	33712	25573	
1339	0	33708	25564	
1340	0	33724	25575	
1341	0	33728	25574	
1342	0	33664	25575	
1343	0	33604	25571	
1344	0	33560	25578	
1345	0	33456	25567	
1346	0	33380	25585	
1347	0	33368	25573	
1348	0	33368	25576	
1349	0	33404	25581	
1350	0	33484	25576	
1351	0	33600	25581	
1352	0	33628	25583	
1353	0	33632	25570	
1354	0	33756	25580	
1355	0	33848	25586	
1356	0	33904	25580	
1357	0	33916	25575	
1358	0	33996	25582	
1359	0	34120	25575	
1360	0	34113	25581	
1361	0	34040	25582	
1362	0	33900	25572	
1363	0	33744	25580	
1364	0	33560	25578	
1365	0	33268	25575	
1366	0	32952	25580	
1367	0	32596	25583	
1368	0	32228	25588	
1369	0	31772	25585	
1370	0	31320	25588	
1371	0	30732	25588	
1372	0	30004	25590	
1373	0	29292	25590	
1374	0	28670	25596	
1375	0	28104	25600	
1376	0	27540	25596	
1377	0	27096	25590	
1378	0	26644	25604	
1379	0	26200	25598	
1380	0	25780	25607	
1381	0	25392	25600	
1382	0	25018	25588	
1383	0	24780	25618	
1384	0	24704	25606	
1385	0	24676	25596	
1386	0	24717	25625	
1387	0	24796	25607	
1388	0	25024	25607	
1389	0	25404	25623	
1390	0	25812	25607	
1391	0	26260	25610	
1392	0	26808	25626	
1393	0	27405	25621	
1394	0	27988	25607	
1395	0	28664	25607	
1396	0	29420	25607	
1397	0	30296	25596	
1398	0	31336	25596	
1399	0	32412	25592	
1400	0	33396	25582	
1401	0	34392	25591	
1402	0	35360	25581	
1403	0	36168	25590	
1404	0	36796	25580	
1405	0	37260	25578	
1406	0	37536	25561	
1407	0	37670	25580	
1408	0	37840	25566	
1409	0	37980	25589	
1410	0	37957	25580	
1411	0	37880	25588	
1412	0	37744	25579	
1413	0	37638	25556	
1414	0	37472	25585	
1415	0	37284	25577	
1416	0	37096	25585	
1417	0	36912	25572	
1418	0	36772	25567	
1419	0	36524	25575	
1420	0	36256	25562	
1421	0	36052	25577	
1422	0	35872	25572	
1423	0	35688	25569	
1424	0	35464	25568	
1425	0	35248	25569	
1426	0	35112	25577	
1427	0	34977	25575	
1428	0	34876	25580	
1429	0	34796	25575	
1430	0	34684	25565	
1431	0	34556	25576	
1432	0	34424	25569	
1433	0	34312	25576	
1434	0	34244	25572	
1435	0	34181	25577	
1436	0	34036	25572	
1437	0	33880	25579	
1438	0	33824	25572	
1439	0	33777	25564	
1440	0	33684	25573	
1441	0	33642	25575	
1442	0	33656	25560	
1443	0	33732	25568	
1444	0	33756	25570	
1445	0	33688	25566	
1446	0	33608	25572	
1447	0	33560	25571	
1448	0	33480	25572	
1449	0	33392	25568	
1450	0	33360	25580	
1451	0	33396	25565	
1452	0	33528	25574	
1453	0	33608	25577	
1454	0	33572	25569	
1455	0	33536	25572	
1456	0	33504	25575	
1457	0	33488	25573	
1458	0	33476	25575	
1459	0	33484	25568	
1460	0	33440	25573	
1461	0	33376	25572	
1462	0	33284	25567	
1463	0	33216	25566	
1464	0	33216	25566	
1465	0	33240	25573	
1466	0	33208	25570	
1467	0	33132	25583	
1468	0	33057	25577	
1469	0	33044	25569	
1470	0	33104	25573	
1471	0	33060	25566	
1472	0	32988	25580	
1473	0	32972	25575	
1474	0	32980	25566	
1475	0	32944	25576	
1476	0	32944	25571	
1477	0	32928	25560	
1478	0	32928	25570	
1479	0	32949	25566	
1480	0	33002	25575	
1481	0	33000	25568	
1482	0	32940	25564	
1483	0	32940	25570	
1484	0	33040	25572	
1485	0	33116	25577	
1486	0	33008	25573	
1487	0	32824	25580	
1488	0	32760	25571	
1489	0	32716	25564	
1490	0	32773	25574	
1491	0	32848	25575	
1492	0	32824	25566	
1493	0	32768	25580	
1494	0	32756	25578	
1495	0	32704	25569	
1496	0	32640	25574	
1497	0	32584	25572	
1498	0	32624	25575	
1499	0	32720	25574	
1500	0	32704	25566	
1501	0	32688	25578	
1502	0	32644	25568	
1503	0	32560	25576	
1504	0	32564	25572	
1505	0	32628	25568	
1506	0	32692	25574	
1507	0	32730	25575	
1508	0	32736	25574	
1509	0	32680	25572	
1510	0	32636	25568	
1511	0	32632	25574	
1512	0	32652	25570	
1513	0	32746	25572	
1514	0	32828	25574	
1515	0	32844	25570	
1516	0	32816	25579	
1517	0	32760	25571	
1518	0	32714	25580	
1519	0	32748	25570	
1520	0	32800	25579	
1521	0	32744	25565	
1522	0	32688	25568	
1523	0	32768	25568	
1524	0	32800	25577	
1525	0	32768	25568	
1526	0	32688	25581	
1527	0	32524	25575	
1528	0	32448	25568	
1529	0	32432	25576	
1530	0	32436	25569	
1531	0	32440	25573	
1532	0	32452	25575	
1533	0	32500	25581	
1534	0	32441	25578	
1535	0	32404	25574	
1536	0	32397	25580	
1537	0	32456	25572	
1538	0	32502	25574	
1539	0	32466	25569	
1540	0	32388	25568	
1541	0	32376	25575	
1542	0	32348	25564	
1543	0	32332	25579	
1544	0	32344	25566	
1545	0	32376	25576	
1546	0	32348	25576	
1547	0	32272	25568	
1548	0	32248	25578	
1549	0	32236	25572	
1550	0	32228	25577	
1551	0	32184	25577	
1552	0	32156	25570	
1553	0	32164	25578	
1554	0	32068	25574	
1555	0	31948	25576	
1556	0	31908	25570	
1557	0	31956	25572	
1558	0	32052	25575	
1559	0	32064	25580	
1560	0	31996	25576	
1561	0	31988	25572	
1562	0	31952	25579	
1563	0	31940	25573	
1564	0	31952	25578	
1565	0	31976	25576	
1566	0	31948	25575	
1567	0	31848	25577	
1568	0	31784	25581	
1569	0	31796	25572	
1570	0	31876	25580	
1571	0	31890	25580	
1572	0	31896	25576	
1573	0	31913	25582	
1574	0	31944	25580	
1575	0	31940	25573	
1576	0	31916	25582	
1577	0	31984	25578	
1578	0	31992	25578	
1579	0	31950	25580	
1580	0	31856	25577	
1581	0	31768	25580	
1582	0	31688	25579	
1583	0	31644	25578	
1584	0	31666	25574	
1585	0	31580	25578	
1586	0	31512	25579	
1587	0	31376	25584	
1588	0	31300	25583	
1589	0	31240	25578	
1590	0	31289	25587	
1591	0	31416	25583	
1592	0	31464	25586	
1593	0	31412	25588	
1594	0	31332	25580	
1595	0	31316	25580	
1596	0	31364	25580	
1597	0	31392	25580	
1598	0	31388	25591	
1599	0	31320	25580	
1600	0	31280	25583	
1601	0	31336	25576	
1602	0	31456	25578	
1603	0	31520	25581	
1604	0	31500	25578	
1605	0	31400	25586	
1606	0	31336	25585	
1607	0	31308	25578	
1608	0	31320	25582	
1609	0	31434	25583	
1610	0	31452	25584	
1611	0	31476	25581	
1612	0	31472	25580	
1613	0	31376	25584	
1614	0	31336	25583	
1615	0	31434	25584	
1616	0	31540	25584	
1617	0	31592	25583	
1618	0	31560	25587	
1619	0	31496	25578	
1620	0	31504	25570	
1621	0	31500	25586	
1622	0	31564	25580	
1623	0	31620	25580	
1624	0	31656	25582	
1625	0	31644	25584	
1626	0	31552	25581	
1627	0	31532	25580	
1628	0	31576	25590	
1629	0	31608	25580	
1630	0	31598	25583	
1631	0	31640	25583	
1632	0	31708	25588	
1633	0	31740	25585	
1634	0	31768	25580	
1635	0	31888	25586	
1636	0	31976	25584	
1637	0	32044	25584	
1638	0	32020	25584	
1639	0	31966	25580	
1640	0	31908	25584	
1641	0	31904	25580	
1642	0	31928	25588	
1643	0	31844	25582	
1644	0	31772	25580	
1645	0	31720	25583	
1646	0	31736	25585	
1647	0	31824	25585	
1648	0	31884	25581	
1649	0	31968	25590	
1650	0	32148	25582	
1651	0	32264	25588	
1652	0	32264	25585	
1653	0	32328	25588	
1654	0	32336	25586	
1655	0	32312	25580	
1656	0	32396	25591	
1657	0	32636	25580	
1658	0	32673	25590	
1659	0	32664	25580	
1660	0	32624	25583	
1661	0	32504	25585	
1662	0	32480	25578	
1663	0	32538	25590	
1664	0	32592	25584	
1665	0	32636	25580	
1666	0	32762	25578	
1667	0	32848	25582	
1668	0	32860	25582	
1669	0	32852	25591	
1670	0	32928	25581	
1671	0	33060	25580	
1672	0	33164	25586	
1673	0	33192	25588	
1674	0	33112	25576	
1675	0	33068	25584	
1676	0	33144	25572	
1677	0	33258	25589	
1678	0	33352	25582	
1679	0	33416	25580	
1680	0	33472	25579	
1681	0	33472	25588	
1682	0	33424	25577	
1683	0	33416	25590	
1684	0	33464	25586	
1685	0	33524	25570	
1686	0	33492	25585	
1687	0	33460	25579	
1688	0	33572	25574	
1689	0	33624	25584	
1690	0	33616	25584	
1691	0	33600	25581	
1692	0	33632	25588	
1693	0	33632	25584	
1694	0	33584	25583	
1695	0	33550	25590	
1696	0	33524	25585	
1697	0	33484	25581	
1698	0	33540	25578	
1699	0	33652	25580	
1700	0	33694	25576	
1701	0	33760	25582	
1702	0	33768	25585	
1703	0	33716	25578	
1704	0	33796	25582	
1705	0	33792	25580	
1706	0	33738	25585	
1707	0	33784	25573	
1708	0	33916	25585	
1709	0	33976	25585	
1710	0	33988	25577	
1711	0	33904	25589	
1712	0	33836	25586	
1713	0	33848	25585	
1714	0	33844	25577	
1715	0	33784	25586	
1716	0	33750	25583	
1717	0	33696	25578	
1718	0	33626	25586	
1719	0	33673	25576	
1720	0	33842	25579	
1721	0	33864	25589	
1722	0	33726	25586	
1723	0	33552	25580	
1724	0	33488	25575	
1725	0	33508	25587	
1726	0	33572	25580	
1727	0	33632	25575	
1728	0	33640	25583	
1729	0	33638	25570	
1730	0	33580	25589	
1731	0	33644	25580	
1732	0	33668	25588	
1733	0	33700	25589	
1734	0	33664	25577	
1735	0	33724	25587	
1736	0	33732	25588	
1737	0	33680	25583	
1738	0	33684	25570	
1739	0	33624	25585	
1740	0	33568	25579	
1741	0	33520	25583	
1742	0	33552	25585	
1743	0	33512	25589	
1744	0	33496	25580	
1745	0	33516	25577	
1746	0	33516	25589	
1747	0	33439	25578	
1748	0	33368	25580	
1749	0	33448	25584	
1750	0	33588	25586	
1751	0	33592	25580	
1752	0	33624	25584	
1753	0	33664	25582	
1754	0	33568	25594	
1755	0	33468	25584	
1756	0	33448	25587	
1757	0	33516	25578	
1758	0	33438	25585	
1759	0	33340	25583	
1760	0	33338	25582	
1761	0	33332	25581	
1762	0	33428	25583	
1763	0	33488	25578	
1764	0	33457	25583	
1765	0	33348	25585	
1766	0	33192	25585	
1767	0	33220	25588	
1768	0	33228	25581	
1769	0	33236	25583	
1770	0	33256	25592	
1771	0	33224	25585	
1772	0	33176	25573	
1773	0	33056	25588	
1774	0	33036	25585	
1775	0	33232	25580	
1776	0	33280	25591	
1777	0	33320	25578	
1778	0	33336	25585	
1779	0	33308	25583	
1780	0	33216	25584	
1781	0	33076	25583	
1782	0	33112	25577	
1783	0	33132	25585	
1784	0	33100	25580	
1785	0	33048	25588	
1786	0	33064	25582	
1787	0	33128	25583	
1788	0	33092	25588	
1789	0	33176	25591	
1790	0	33256	25580	
1791	0	33124	25588	
1792	0	33012	25582	
1793	0	32992	25562	
1794	0	32992	25588	
1795	0	33080	25589	
1796	0	33120	25577	
1797	0	33126	25589	
1798	0	33052	25592	
1799	0	33016	25582	
1800	0	33128	25585	
1801	0	33173	25578	
1802	0	33084	25580	
1803	0	33004	25588	
1804	0	33064	25581	
1805	0	33216	25585	
1806	0	33284	25580	
1807	0	33230	25584	
1808	0	33204	25582	
1809	0	33274	25585	
1810	0	33320	25591	
1811	0	33312	25586	
1812	0	33268	25588	
1813	0	33156	25589	
1814	0	33064	25586	
1815	0	33144	25587	
1816	0	33252	25593	
1817	0	33144	25586	
1818	0	33005	25584	
1819	0	33084	25587	
1820	0	33132	25581	
1821	0	33049	25585	
1822	0	33056	25584	
1823	0	33128	25575	
1824	0	33248	25581	
1825	0	33210	25588	
1826	0	33128	25589	
1827	0	33104	25588	
1828	0	33124	25578	
1829	0	33144	25591	
1830	0	33060	25590	
1831	0	33052	25580	
1832	0	33076	25588	
1833	0	33106	25589	
1834	0	33108	25576	
1835	0	33044	25588	
1836	0	32920	25581	
1837	0	32968	25580	
1838	0	33232	25584	
1839	0	33336	25584	
1840	0	33148	25583	
1841	0	33008	25590	
1842	0	33012	25586	
1843	0	33032	25574	
1844	0	32976	25588	
1845	0	33057	25578	
1846	0	33168	25590	
1847	0	33088	25581	
1848	0	33076	25585	
1849	0	33156	25586	
1850	0	33236	25591	
1851	0	33322	25584	
1852	0	33284	25586	
1853	0	33227	25582	
1854	0	33140	25578	
1855	0	33040	25586	
1856	0	33020	25577	
1857	0	33118	25585	
1858	0	33157	25588	
1859	0	33064	25580	
1860	0	33136	25583	
1861	0	33232	25580	
1862	0	33036	25586	
1863	0	32930	25579	
1864	0	32948	25579	
1865	0	32952	25592	
1866	0	32954	25585	
1867	0	32974	25590	
1868	0	32988	25585	
1869	0	33044	25580	
1870	0	33124	25584	
1871	0	33208	25584	
1872	0	33236	25582	
1873	0	33264	25593	
1874	0	33072	25590	
1875	0	33036	25588	
1876	0	33133	25583	
1877	0	33112	25583	
1878	0	33168	25597	
1879	0	33236	25591	
1880	0	33164	25577	
1881	0	33016	25586	
1882	0	32956	25584	
1883	0	32904	25576	
1884	0	32920	25581	
1885	0	33128	25585	
1886	0	33268	25583	
1887	0	33164	25587	
1888	0	33096	25578	
1889	0	32990	25592	
1890	0	32976	25580	
1891	0	33168	25588	
1892	0	33376	25586	
1893	0	33356	25590	
1894	0	33100	25590	
1895	0	32832	25588	
1896	0	32772	25580	
1897	0	32900	25587	
1898	0	33096	25584	
1899	0	33288	25583	
1900	0	33221	25588	
1901	0	33085	25583	
1902	0	33048	25591	
1903	0	33064	25587	
1904	0	33016	25582	
1905	0	33016	25588	
1906	0	32968	25592	
1907	0	32794	25583	
1908	0	32748	25588	
1909	0	32804	25589	
1910	0	32780	25585	
1911	0	32686	25586	
1912	0	32764	25584	
1913	0	32976	25575	
1914	0	33156	25580	
1915	0	33201	25583	
1916	0	33204	25588	
1917	0	33261	25580	
1918	0	33360	25582	
1919	0	33416	25588	
1920	0	33284	25590	
1921	0	33048	25587	
1922	0	32800	25584	
1923	0	32776	25586	
1924	0	32824	25583	
1925	0	32756	25586	
1926	0	32776	25586	
1927	0	32840	25593	
1928	0	32784	25591	
1929	0	32782	25584	
1930	0	32816	25593	
1931	0	32784	25586	
1932	0	32632	25599	
1933	0	32460	25591	
1934	0	32428	25582	
1935	0	32452	25591	
1936	0	32520	25593	
1937	0	32616	25580	
1938	0	32732	25592	
1939	0	32740	25588	
1940	0	32840	25590	
1941	0	32864	25584	
1942	0	32860	25587	
1943	0	32760	25585	
1944	0	32688	25589	
1945	0	32852	25578	
1946	0	32818	25585	
1947	0	32536	25597	
1948	0	32312	25593	
1949	0	32164	25588	
1950	0	32108	25591	
1951	0	32120	25596	
1952	0	32132	25586	
1953	0	32088	25587	
1954	0	32072	25595	
1955	0	32224	25592	
1956	0	32372	25588	
1957	0	32444	25592	
1958	0	32396	25591	
1959	0	32360	25592	
1960	0	32324	25576	
1961	0	32280	25591	
1962	0	32148	25589	
1963	0	32080	25588	
1964	0	32048	25584	
1965	0	31930	25590	
1966	0	31916	25587	
1967	0	31960	25583	
1968	0	31984	25596	
1969	0	32136	25588	
1970	0	32188	25588	
1971	0	32232	25590	
1972	0	32172	25594	
1973	0	32196	25588	
1974	0	32312	25591	
1975	0	32408	25594	
1976	0	32452	25593	
1977	0	32492	25584	
1978	0	32412	25594	
1979	0	32308	25592	
1980	0	32152	25585	
1981	0	32060	25588	
1982	0	32028	25589	
1983	0	32086	25581	
1984	0	32248	25582	
1985	0	32460	25584	
1986	0	32588	25582	
1987	0	32660	25588	
1988	0	32592	25594	
1989	0	32580	25595	
1990	0	32668	25583	
1991	0	32804	25591	
1992	0	32888	25584	
1993	0	32996	25582	
1994	0	33244	25592	
1995	0	33276	25591	
1996	0	33232	25584	
1997	0	33256	25588	
1998	0	33292	25593	
1999	0	33400	25583	
2000	0	33500	25586	
2001	0	33504	25583	
2002	0	33656	25577	
2003	0	33744	25584	
2004	0	33757	25580	
2005	0	33636	25574	
2006	0	33552	25584	
2007	0	33584	25582	
2008	0	33509	25584	
2009	0	33488	25586	
2010	0	33622	25580	
2011	0	33608	25592	
2012	0	33560	25588	
2013	0	33420	25580	
2014	0	33356	25589	
2015	0	33280	25583	
2016	0	33245	25580	
2017	0	33328	25582	
2018	0	33454	25583	
2019	0	33576	25580	
2020	0	33500	25588	
2021	0	33418	25581	
2022	0	33328	25589	
2023	0	33336	25582	
2024	0	33412	25580	
2025	0	33364	25584	
2026	0	33320	25581	
2027	0	33370	25570	
2028	0	33404	25588	
2029	0	33505	25580	
2030	0	33700	25588	
2031	0	33772	25585	
2032	0	33692	25583	
2033	0	33508	25591	
2034	0	33388	25585	
2035	0	33408	25576	
2036	0	33628	25581	
2037	0	33688	25581	
2038	0	33660	25579	
2039	0	33612	25582	
2040	0	33488	25588	
2041	0	33472	25583	
2042	0	33460	25580	
2043	0	33424	25580	
2044	0	33392	25584	
2045	0	33308	25588	
2046	0	33308	25576	
2047	0	33332	25587	
2048	0	33244	25585	
2049	0	33252	25589	
2050	0	33436	25586	
2051	0	33472	25578	
2052	0	33384	25591	
2053	0	33284	25580	
2054	0	33328	25577	
2055	0	33400	25591	
2056	0	33462	25580	
2057	0	33508	25590	
2058	0	33464	25588	
2059	0	33400	25591	
2060	0	33416	25578	
2061	0	33480	25582	
2062	0	33404	25599	
2063	0	33204	25585	
2064	0	33004	25596	
2065	0	32896	25593	
2066	0	32792	25592	
2067	0	32432	25598	
2068	0	31924	25593	
2069	0	31572	25597	
2070	0	31132	25597	
2071	0	30480	25601	
2072	0	29892	25592	
2073	0	29340	25600	
2074	0	28730	25602	
2075	0	28112	25607	
2076	0	27640	25603	
2077	0	27348	25606	
2078	0	27033	25604	
2079	0	26808	25604	
2080	0	26708	25596	
2081	0	26660	25607	
2082	0	26517	25620	
2083	0	26408	25612	
2084	0	26364	25612	
2085	0	26428	25605	
2086	0	26568	25616	
2087	0	26838	25614	
2088	0	27192	25607	
2089	0	27680	25621	
2090	0	28312	25618	
2091	0	29024	25613	
2092	0	29692	25622	
2093	0	30292	25615	
2094	0	30884	25607	
2095	0	31512	25607	
2096	0	32080	25607	
2097	0	32596	25607	
2098	0	33140	25606	
2099	0	33696	25601	
2100	0	34256	25605	
2101	0	34856	25584	
2102	0	35498	25597	
2103	0	36272	25590	
2104	0	36990	25575	
2105	0	37456	25592	
2106	0	37568	25582	
2107	0	37556	25596	
2108	0	37576	25590	
2109	0	37488	25580	
2110	0	37288	25598	
2111	0	37152	25576	
2112	0	37048	25592	
2113	0	36794	25581	
2114	0	36624	25590	
2115	0	36558	25597	
2116	0	36520	25575	
2117	0	36472	25594	
2118	0	36420	25587	
2119	0	36188	25573	
2120	0	35784	25592	
2121	0	35640	25584	
2122	0	35520	25569	
2123	0	35312	25588	
2124	0	35196	25580	
2125	0	35112	25576	
2126	0	35000	25592	
2127	0	34868	25576	
2128	0	34784	25577	
2129	0	34792	25586	
2130	0	34832	25584	
2131	0	34708	25576	
2132	0	34432	25596	
2133	0	34244	25587	
2134	0	34054	25582	
2135	0	33964	25584	
2136	0	33952	25584	
2137	0	33892	25576	
2138	0	33828	25587	
2139	0	33848	25586	
2140	0	33772	25576	
2141	0	33656	25584	
2142	0	33500	25582	
2143	0	33288	25584	
2144	0	33220	25581	
2145	0	33344	25580	
2146	0	33356	25581	
2147	0	33260	25585	
2148	0	33168	25590	
2149	0	33104	25577	
2150	0	33116	25586	
2151	0	33052	25584	
2152	0	32992	25582	
2153	0	32928	25588	
2154	0	32896	25588	
2155	0	32872	25583	
2156	0	32904	25587	
2157	0	32892	25585	
2158	0	32924	25580	
2159	0	32956	25578	
2160	0	33024	25586	
2161	0	33072	25585	
2162	0	32940	25576	
2163	0	32848	25591	
2164	0	32928	25588	
2165	0	33016	25581	
2166	0	32940	25589	
2167	0	32861	25590	
2168	0	32853	25575	
2169	0	32864	25593	
2170	0	32952	25587	
2171	0	32896	25592	
2172	0	32740	25585	
2173	0	32696	25583	
2174	0	32692	25589	
2175	0	32728	25589	
2176	0	32636	25583	
2177	0	32580	25593	
2178	0	32512	25590	
2179	0	32534	25576	
2180	0	32692	25576	
2181	0	32676	25584	
2182	0	32580	25584	
2183	0	32588	25578	
2184	0	32565	25586	
2185	0	32556	25589	
2186	0	32580	25580	
2187	0	32508	25591	
2188	0	32333	25591	
2189	0	32368	25585	
2190	0	32644	25596	
2191	0	32768	25585	
2192	0	32724	25588	
2193	0	32664	25593	
2194	0	32632	25585	
2195	0	32732	25583	
2196	0	32832	25597	
2197	0	32818	25589	
2198	0	32824	25583	
2199	0	32844	25597	
2200	0	32752	25586	
2201	0	32644	25589	
2202	0	32552	25580	
2203	0	32558	25585	
2204	0	32548	25585	
2205	0	32492	25578	
2206	0	32512	25596	
2207	0	32528	25589	
2208	0	32476	25596	
2209	0	32362	25588	
2210	0	32384	25587	
2211	0	32448	25583	
2212	0	32480	25596	
2213	0	32420	25595	
2214	0	32376	25586	
2215	0	32368	25594	
2216	0	32420	25592	
2217	0	32440	25580	
2218	0	32476	25590	
2219	0	32444	25589	
2220	0	32444	25587	
2221	0	32472	25575	
2222	0	32504	25589	
2223	0	32492	25580	
2224	0	32516	25594	
2225	0	32548	25592	
2226	0	32504	25591	
2227	0	32432	25592	
2228	0	32418	25591	
2229	0	32480	25588	
2230	0	32458	25593	
2231	0	32440	25582	
2232	0	32452	25591	
2233	0	32456	25597	
2234	0	32401	25594	
2235	0	32384	25580	
2236	0	32424	25593	
2237	0	32438	25590	
2238	0	32416	25588	
2239	0	32412	25590	
2240	0	32396	25590	
2241	0	32332	25584	
2242	0	32348	25589	
2243	0	32352	25590	
2244	0	32360	25590	
2245	0	32308	25599	
2246	0	32136	25588	
2247	0	32068	25588	
2248	0	32108	25592	
2249	0	32204	25591	
2250	0	32240	25597	
2251	0	32236	25584	
2252	0	32205	25595	
2253	0	32144	25591	
2254	0	32172	25599	
2255	0	32128	25594	
2256	0	31986	25597	
2257	0	31904	25586	
2258	0	31960	25593	
2259	0	32072	25590	
2260	0	32104	25587	
2261	0	32012	25590	
2262	0	31924	25595	
2263	0	31904	25588	
2264	0	31880	25595	
2265	0	31792	25590	
2266	0	31784	25590	
2267	0	31845	25594	
2268	0	31912	25596	
2269	0	31880	25588	
2270	0	31854	25594	
2271	0	31812	25596	
2272	0	31772	25589	
2273	0	31752	25596	
2274	0	31808	25595	
2275	0	31836	25601	
2276	0	31832	25594	
2277	0	31812	25593	
2278	0	31760	25588	
2279	0	31724	25593	
2280	0	31688	25595	
2281	0	31664	25585	
2282	0	31660	25594	
2283	0	31658	25593	
2284	0	31676	25592	
2285	0	31664	25597	
2286	0	31620	25596	
2287	0	31560	25597	
2288	0	31538	25599	
2289	0	31544	25596	
2290	0	31580	25593	
2291	0	31620	25596	
2292	0	31616	25598	
2293	0	31572	25596	
2294	0	31580	25596	
2295	0	31540	25601	
2296	0	31474	25596	
2297	0	31468	25599	
2298	0	31456	25594	
2299	0	31450	25593	
2300	0	31396	25594	
2301	0	31244	25596	
2302	0	31212	25596	
2303	0	31316	25606	
2304	0	31408	25596	
2305	0	31404	25592	
2306	0	31396	25589	
2307	0	31420	25601	
2308	0	31480	25596	
2309	0	31512	25594	
2310	0	31576	25600	
2311	0	31578	25600	
2312	0	31560	25594	
2313	0	31612	25604	
2314	0	31688	25596	
2315	0	31752	25572	
2316	0	31748	25601	
2317	0	31732	25600	
2318	0	31764	25598	
2319	0	31828	25597	
2320	0	31792	25593	
2321	0	31720	25592	
2322	0	31664	25599	
2323	0	31624	25600	
2324	0	31616	25594	
2325	0	31556	25596	
2326	0	31520	25602	
2327	0	31540	25592	
2328	0	31572	25603	
2329	0	31744	25604	
2330	0	31837	25596	
2331	0	31824	25602	
2332	0	31840	25599	
2333	0	31924	25605	
2334	0	31960	25599	
2335	0	32024	25596	
2336	0	32176	25600	
2337	0	32218	25605	
2338	0	32260	25598	
2339	0	32228	25604	
2340	0	32160	25595	
2341	0	32176	25594	
2342	0	32256	25596	
2343	0	32280	25603	
2344	0	32288	25602	
2345	0	32292	25592	
2346	0	32312	25598	
2347	0	32384	25599	
2348	0	32420	25598	
2349	0	32328	25607	
2350	0	32228	25599	
2351	0	32268	25597	
2352	0	32412	25599	
2353	0	32538	25601	
2354	0	32604	25598	
2355	0	32628	25598	
2356	0	32708	25596	
2357	0	32880	25600	
2358	0	32996	25599	
2359	0	32988	25595	
2360	0	32964	25600	
2361	0	33008	25602	
2362	0	33140	25590	
2363	0	33284	25597	
2364	0	33344	25590	
2365	0	33308	25602	
2366	0	33228	25598	
2367	0	33144	25590	
2368	0	33060	25593	
2369	0	33024	25600	
2370	0	33096	25600	
2371	0	33216	25596	
2372	0	33360	25599	
2373	0	33420	25598	
2374	0	33504	25597	
2375	0	33628	25600	
2376	0	33764	25596	
2377	0	33812	25607	
2378	0	33842	25592	
2379	0	33876	25598	
2380	0	33896	25599	
2381	0	33900	25601	
2382	0	33904	25597	
2383	0	34012	25589	
2384	0	33968	25596	
2385	0	33896	25587	
2386	0	33824	25599	
2387	0	33796	25599	
2388	0	33792	25588	
2389	0	33804	25597	
2390	0	33908	25595	
2391	0	34028	25599	
2392	0	34064	25596	
2393	0	34088	25585	
2394	0	34136	25598	
2395	0	34100	25598	
2396	0	34196	25601	
2397	0	34272	25597	
2398	0	34260	25586	
2399	0	34232	25602	
2400	0	34164	25595	
2401	0	34072	25606	
2402	0	34088	25594	
2403	0	34160	25589	
2404	0	34196	25599	
2405	0	34222	25595	
2406	0	34217	25591	
2407	0	34204	25603	
2408	0	34168	25592	
2409	0	34176	25589	
2410	0	34213	25596	
2411	0	34292	25588	
2412	0	34322	25602	
2413	0	34302	25596	
2414	0	34302	25586	
2415	0	34292	25599	
2416	0	34328	25603	
2417	0	34372	25588	
2418	0	34384	25600	
2419	0	34324	25595	
2420	0	34232	25588	
2421	0	34144	25597	
2422	0	34060	25592	
2423	0	33976	25596	
2424	0	33948	25589	
2425	0	33964	25596	
2426	0	33942	25599	
2427	0	33928	25597	
2428	0	33954	25596	
2429	0	33960	25593	
2430	0	33928	25601	
2431	0	33904	25588	
2432	0	33916	25595	
2433	0	33972	25590	
2434	0	33940	25597	
2435	0	33908	25590	
2436	0	33912	25601	
2437	0	33936	25596	
2438	0	33992	25598	
2439	0	34004	25599	
2440	0	33920	25600	
2441	0	33948	25598	
2442	0	33968	25594	
2443	0	33916	25596	
2444	0	33872	25594	
2445	0	33872	25585	
2446	0	33872	25594	
2447	0	33852	25590	
2448	0	33892	25607	
2449	0	33901	25591	
2450	0	33892	25601	
2451	0	33848	25594	
2452	0	33774	25602	
2453	0	33704	25605	
2454	0	33696	25588	
2455	0	33760	25598	
2456	0	33876	25588	
2457	0	33956	25599	
2458	0	33960	25592	
2459	0	33884	25602	
2460	0	33720	25601	
2461	0	33536	25594	
2462	0	33424	25599	
2463	0	33412	25597	
2464	0	33444	25580	
2465	0	33536	25597	
2466	0	33644	25591	
2467	0	33700	25599	
2468	0	33636	25599	
2469	0	33536	25599	
2470	0	33520	25597	
2471	0	33558	25592	
2472	0	33624	25602	
2473	0	33652	25604	
2474	0	33600	25596	
2475	0	33572	25605	
2476	0	33616	25597	
2477	0	33669	25601	
2478	0	33662	25601	
2479	0	33592	25588	
2480	0	33436	25601	
2481	0	33356	25593	
2482	0	33316	25592	
2483	0	33332	25593	
2484	0	33400	25596	
2485	0	33360	25596	
2486	0	33330	25597	
2487	0	33280	25593	
2488	0	33264	25599	
2489	0	33256	25596	
2490	0	33204	25605	
2491	0	33236	25605	
2492	0	33256	25596	
2493	0	33228	25599	
2494	0	33192	25594	
2495	0	33248	25606	
2496	0	33348	25603	
2497	0	33428	25598	
2498	0	33464	25596	
2499	0	33480	25598	
2500	0	33468	25599	
2501	0	33358	25592	
2502	0	33320	25601	
2503	0	33328	25598	
2504	0	33380	25599	
2505	0	33360	25595	
2506	0	33284	25604	
2507	0	33264	25594	
2508	0	33244	25596	
2509	0	33232	25596	
2510	0	33304	25600	
2511	0	33296	25601	
2512	0	33204	25604	
2513	0	33164	25600	
2514	0	33192	25594	
2515	0	33220	25607	
2516	0	33220	25599	
2517	0	33300	25597	
2518	0	33324	25601	
2519	0	33320	25596	
2520	0	33252	25593	
2521	0	33202	25601	
2522	0	33152	25596	
2523	0	33060	25599	
2524	0	33114	25601	
2525	0	33152	25596	
2526	0	33168	25607	
2527	0	33164	25604	
2528	0	33116	25597	
2529	0	33044	25600	
2530	0	33088	25605	
2531	0	33204	25599	
2532	0	33276	25604	
2533	0	33292	25602	
2534	0	33336	25603	
2535	0	33372	25598	
2536	0	33416	25596	
2537	0	33388	25607	
2538	0	33308	25599	
2539	0	33228	25594	
2540	0	33208	25602	
2541	0	33260	25601	
2542	0	33296	25595	
2543	0	33324	25602	
2544	0	33304	25600	
2545	0	33144	25606	
2546	0	33112	25597	
2547	0	33172	25600	
2548	0	33196	25604	
2549	0	33208	25596	
2550	0	33287	25594	
2551	0	33264	25607	
2552	0	33218	25598	
2553	0	33200	25607	
2554	0	33184	25600	
2555	0	33232	25598	
2556	0	33368	25598	
2557	0	33404	25597	
2558	0	33404	25604	
2559	0	33432	25596	
2560	0	33428	25599	
2561	0	33416	25596	
2562	0	33444	25594	
2563	0	33446	25604	
2564	0	33380	25603	
2565	0	33324	25593	
2566	0	33248	25605	
2567	0	33156	25599	
2568	0	33104	25607	
2569	0	33072	25606	
2570	0	33132	25593	
2571	0	33249	25601	
2572	0	33272	25603	
2573	0	33244	25604	
2574	0	33272	25598	
2575	0	33316	25594	
2576	0	33316	25604	
2577	0	33332	25601	
2578	0	33320	25573	
2579	0	33328	25604	
2580	0	33244	25600	
2581	0	33072	25591	
2582	0	32992	25598	
2583	0	32972	25601	
2584	0	32968	25596	
2585	0	33032	25602	
2586	0	33108	25596	
2587	0	33184	25598	
2588	0	33228	25596	
2589	0	33296	25604	
2590	0	33296	25601	
2591	0	33281	25606	
2592	0	33272	25604	
2593	0	33288	25602	
2594	0	33308	25607	
2595	0	33370	25604	
2596	0	33397	25578	
2597	0	33320	25601	
2598	0	33272	25601	
2599	0	33268	25602	
2600	0	33248	25602	
2601	0	33380	25592	
2602	0	33422	25604	
2603	0	33336	25603	
2604	0	33220	25602	
2605	0	33172	25606	
2606	0	33068	25607	
2607	0	32996	25607	
2608	0	32956	25602	
2609	0	32920	25600	
2610	0	32952	25604	
2611	0	32928	25606	
2612	0	32824	25600	
2613	0	32870	25606	
2614	0	32948	25602	
2615	0	32892	25607	
2616	0	32916	25607	
2617	0	33017	25606	
2618	0	33044	25606	
2619	0	33048	25594	
2620	0	33000	25607	
2621	0	32968	25600	
2622	0	32908	25601	
2623	0	32876	25606	
2624	0	32836	25600	
2625	0	32728	25604	
2626	0	32628	25606	
2627	0	32596	25604	
2628	0	32584	25606	
2629	0	32576	25600	
2630	0	32684	25604	
2631	0	32752	25607	
2632	0	32844	25601	
2633	0	32908	25605	
2634	0	32900	25604	
2635	0	32888	25607	
2636	0	32908	25604	
2637	0	32868	25602	
2638	0	32824	25605	
2639	0	32836	25607	
2640	0	32868	25600	
2641	0	32892	25606	
2642	0	32904	25602	
2643	0	32900	25599	
2644	0	32896	25607	
2645	0	32888	25607	
2646	0	32860	25601	
2647	0	32724	25607	
2648	0	32568	25607	
2649	0	32472	25607	
2650	0	32468	25606	
2651	0	32524	25607	
2652	0	32464	25607	
2653	0	32337	25607	
2654	0	32228	25607	
2655	0	32212	25607	
2656	0	32332	25606	
2657	0	32388	25607	
2658	0	32408	25607	
2659	0	32336	25607	
2660	0	32250	25604	
2661	0	32200	25606	
2662	0	32132	25604	
2663	0	32124	25601	
2664	0	32120	25607	
2665	0	32100	25606	
2666	0	32052	25606	
2667	0	32052	25607	
2668	0	32150	25607	
2669	0	32272	25607	
2670	0	32372	25606	
2671	0	32400	25607	
2672	0	32396	25607	
2673	0	32380	25607	
2674	0	32370	25604	
2675	0	32404	25607	
2676	0	32452	25604	
2677	0	32464	25604	
2678	0	32468	25606	
2679	0	32488	25602	
2680	0	32568	25606	
2681	0	32648	25607	
2682	0	32748	25607	
2683	0	32845	25606	
2684	0	32928	25607	
2685	0	32992	25607	
2686	0	33020	25597	
2687	0	32936	25606	
2688	0	32868	25604	
2689	0	32856	25598	
2690	0	32884	25607	
2691	0	33028	25602	
2692	0	33240	25607	
2693	0	33364	25602	
2694	0	33436	25599	
2695	0	33600	25602	
2696	0	33736	25600	
2697	0	33688	25607	
2698	0	33660	25604	
2699	0	33656	25601	
2700	0	33600	25604	
2701	0	33532	25600	
2702	0	33492	25606	
2703	0	33468	25600	
2704	0	33492	25596	
2705	0	33548	25607	
2706	0	33616	25597	
2707	0	33652	25602	
2708	0	33716	25599	
2709	0	33708	25605	
2710	0	33528	25596	
2711	0	33420	25606	
2712	0	33428	25606	
2713	0	33504	25607	
2714	0	33549	25607	
2715	0	33528	25601	
2716	0	33600	25606	
2717	0	33636	25603	
2718	0	33552	25607	
2719	0	33428	25606	
2720	0	33328	25600	
2721	0	33288	25602	
2722	0	33228	25598	
2723	0	33120	25605	
2724	0	33144	25604	
2725	0	33208	25596	
2726	0	33185	25604	
2727	0	33152	25607	
2728	0	33184	25598	
2729	0	33136	25606	
2730	0	33154	25599	
2731	0	33176	25601	
2732	0	33160	25598	
2733	0	33100	25606	
2734	0	33072	25604	
2735	0	33096	25607	
2736	0	33204	25601	
2737	0	33324	25599	
2738	0	33352	25605	
2739	0	33348	25594	
2740	0	33336	25597	
2741	0	33368	25604	
2742	0	33380	25600	
2743	0	33328	25593	
2744	0	33324	25605	
2745	0	33300	25604	
2746	0	33264	25607	
2747	0	33268	25602	
2748	0	33286	25603	
2749	0	33328	25606	
2750	0	33404	25607	
2751	0	33472	25607	
2752	0	33492	25607	
2753	0	33502	25598	
2754	0	33560	25607	
2755	0	33672	25607	
2756	0	33704	25607	
2757	0	33700	25607	
2758	0	33636	25606	
2759	0	33508	25607	
2760	0	33280	25607	
2761	0	33100	25604	
2762	0	32912	25607	
2763	0	32628	25607	
2764	0	32186	25607	
2765	0	31644	25615	
2766	0	31064	25623	
2767	0	30424	25622	
2768	0	29824	25623	
2769	0	29288	25629	
2770	0	28708	25628	
2771	0	28116	25631	
2772	0	27540	25632	
2773	0	27036	25641	
2774	0	26578	25629	
2775	0	26236	25637	
2776	0	25952	25650	
2777	0	25728	25632	
2778	0	25528	25650	
2779	0	25342	25644	
2780	0	25192	25646	
2781	0	25078	25658	
2782	0	25048	25645	
2783	0	25240	25650	
2784	0	25620	25658	
2785	0	25988	25646	
2786	0	26368	25639	
2787	0	26847	25657	
2788	0	27416	25653	
2789	0	28017	25654	
2790	0	28632	25655	
2791	0	29313	25642	
2792	0	30024	25638	
2793	0	30784	25637	
2794	0	31620	25638	
2795	0	32386	25633	
2796	0	33048	25628	
2797	0	33696	25633	
2798	0	34584	25626	
2799	0	35468	25616	
2800	0	36204	25604	
2801	0	36700	25624	
2802	0	36992	25607	
2803	0	37060	25606	
2804	0	36996	25602	
2805	0	36808	25621	
2806	0	36672	25616	
2807	0	36576	25596	
2808	0	36484	25618	
2809	0	36384	25621	
2810	0	36244	25596	
2811	0	36108	25607	
2812	0	36020	25604	
2813	0	35948	25617	
2814	0	35960	25614	
2815	0	35930	25603	
2816	0	35844	25607	
2817	0	35728	25607	
2818	0	35604	25599	
2819	0	35464	25607	
2820	0	35304	25600	
2821	0	35116	25620	
2822	0	34996	25606	
2823	0	34864	25604	
2824	0	34712	25607	
2825	0	34652	25606	
2826	0	34589	25606	
2827	0	34512	25616	
2828	0	34388	25602	
2829	0	34280	25606	
2830	0	34210	25612	
2831	0	34133	25607	
2832	0	34052	25607	
2833	0	33964	25607	
2834	0	33852	25607	
2835	0	33736	25607	
2836	0	33692	25607	
2837	0	33704	25607	
2838	0	33685	25607	
2839	0	33680	25604	
2840	0	33696	25604	
2841	0	33616	25607	
2842	0	33552	25596	
2843	0	33422	25607	
2844	0	33304	25602	
2845	0	33224	25600	
2846	0	33212	25607	
2847	0	33244	25606	
2848	0	33272	25607	
2849	0	33308	25607	
2850	0	33316	25607	
2851	0	33344	25607	
2852	0	33348	25607	
2853	0	33296	25621	
2854	0	33257	25607	
2855	0	33284	25607	
2856	0	33356	25607	
2857	0	33368	25607	
2858	0	33368	25605	
2859	0	33384	25607	
2860	0	33322	25600	
2861	0	33208	25607	
2862	0	33112	25607	
2863	0	33056	25602	
2864	0	33044	25607	
2865	0	33004	25607	
2866	0	32984	25600	
2867	0	33028	25607	
2868	0	33014	25606	
2869	0	33032	25616	
2870	0	33048	25607	
2871	0	33118	25615	
2872	0	33148	25607	
2873	0	33164	25607	
2874	0	33124	25617	
2875	0	33120	25607	
2876	0	33116	25606	
2877	0	33109	25617	
2878	0	33060	25607	
2879	0	32988	25607	
2880	0	32924	25604	
2881	0	32948	25607	
2882	0	32940	25607	
2883	0	32992	25607	
2884	0	33124	25607	
2885	0	33156	25607	
2886	0	33076	25616	
2887	0	32970	25604	
2888	0	32928	25607	
2889	0	33036	25604	
2890	0	33044	25607	
2891	0	32980	25607	
2892	0	32912	25614	
2893	0	32820	25607	
2894	0	32760	25607	
2895	0	32760	25614	
2896	0	32788	25607	
2897	0	32812	25605	
2898	0	32824	25615	
2899	0	32796	25607	
2900	0	32800	25607	
2901	0	32800	25607	
2902	0	32796	25617	
2903	0	32800	25605	
2904	0	32814	25607	
2905	0	32720	25607	
2906	0	32660	25604	
2907	0	32604	25607	
2908	0	32544	25607	
2909	0	32516	25607	
2910	0	32568	25607	
2911	0	32672	25607	
2912	0	32692	25614	
2913	0	32714	25612	
2914	0	32804	25607	
2915	0	32880	25619	
2916	0	32840	25607	
2917	0	32816	25614	
2918	0	32852	25607	
2919	0	32892	25607	
2920	0	32865	25607	
2921	0	32768	25617	
2922	0	32706	25607	
2923	0	32716	25607	
2924	0	32784	25607	
2925	0	32800	25611	
2926	0	32720	25607	
2927	0	32608	25607	
2928	0	32588	25614	
2929	0	32641	25607	
2930	0	32681	25607	
2931	0	32708	25607	
2932	0	32692	25607	
2933	0	32704	25618	
2934	0	32628	25607	
2935	0	32528	25607	
2936	0	32480	25614	
2937	0	32484	25621	
2938	0	32514	25607	
2939	0	32496	25617	
2940	0	32448	25606	
2941	0	32448	25607	
2942	0	32484	25607	
2943	0	32456	25607	
2944	0	32460	25617	
2945	0	32416	25616	
2946	0	32340	25607	
2947	0	32268	25618	
2948	0	32224	25607	
2949	0	32220	25607	
2950	0	32284	25618	
2951	0	32340	25626	
2952	0	32380	25615	
2953	0	32368	25621	
2954	0	32320	25607	
2955	0	32300	25627	
2956	0	32240	25622	
2957	0	32184	25607	
2958	0	32144	25615	
2959	0	32120	25612	
2960	0	32156	25607	
2961	0	32212	25620	
2962	0	32202	25612	
2963	0	32188	25618	
2964	0	32184	25617	
2965	0	32176	25620	
2966	0	32188	25617	
2967	0	32136	25614	
2968	0	32072	25622	
2969	0	32078	25621	
2970	0	32088	25616	
2971	0	32052	25621	
2972	0	32074	25623	
2973	0	32096	25622	
2974	0	32060	25621	
2975	0	32008	25618	
2976	0	31944	25617	
2977	0	31936	25620	
2978	0	31996	25620	
2979	0	32020	25620	
2980	0	31932	25616	
2981	0	31824	25623	
2982	0	31701	25626	
2983	0	31688	25621	
2984	0	31728	25617	
2985	0	31680	25616	
2986	0	31640	25626	
2987	0	31588	25622	
2988	0	31560	25620	
2989	0	31532	25628	
2990	0	31588	25625	
2991	0	31608	25622	
2992	0	31684	25618	
2993	0	31764	25624	
2994	0	31802	25622	
2995	0	31832	25629	
2996	0	31816	25623	
2997	0	31808	25622	
2998	0	31764	25620	
2999	0	31740	25623	
3000	0	31736	25623	
3001	0	31680	25631	
3002	0	31592	25625	
3003	0	31573	25614	
3004	0	31640	25621	
3005	0	31728	25616	
3006	0	31692	25630	
3007	0	31616	25622	
3008	0	31632	25628	
3009	0	31664	25624	
3010	0	31688	25628	
3011	0	31728	25624	
3012	0	31772	25629	
3013	0	31732	25631	
3014	0	31680	25631	
3015	0	31736	25628	
3016	0	31736	25628	
3017	0	31832	25630	
3018	0	31952	25629	
3019	0	32048	25631	
3020	0	32020	25627	
3021	0	31996	25628	
3022	0	31948	25622	
3023	0	31928	25628	
3024	0	31900	25626	
3025	0	31800	25628	
3026	0	31806	25621	
3027	0	31896	25627	
3028	0	31912	25636	
3029	0	31868	25624	
3030	0	31838	25626	
3031	0	31896	25616	
3032	0	31976	25632	
3033	0	32040	25631	
3034	0	32078	25624	
3035	0	32184	25630	
3036	0	32232	25637	
3037	0	32316	25601	
3038	0	32420	25624	
3039	0	32444	25622	
3040	0	32432	25629	
3041	0	32400	25630	
3042	0	32360	25632	
3043	0	32360	25621	
3044	0	32440	25622	
3045	0	32506	25615	
3046	0	32516	25627	
3047	0	32472	25624	
3048	0	32432	25625	
3049	0	32430	25625	
3050	0	32472	25623	
3051	0	32478	25628	
3052	0	32512	25629	
3053	0	32554	25632	
3054	0	32680	25628	
3055	0	32888	25624	
3056	0	32994	25628	
3057	0	33044	25627	
3058	0	33084	25629	
3059	0	33129	25628	
3060	0	33100	25621	
3061	0	33088	25628	
3062	0	33124	25624	
3063	0	33172	25623	
3064	0	33184	25628	
3065	0	33144	25625	
3066	0	33128	25626	
3067	0	33156	25620	
3068	0	33184	25626	
3069	0	33194	25631	
3070	0	33220	25617	
3071	0	33320	25624	
3072	0	33416	25620	
3073	0	33448	25630	
3074	0	33464	25625	
3075	0	33504	25620	
3076	0	33556	25617	
3077	0	33620	25624	
3078	0	33680	25619	
3079	0	33656	25621	
3080	0	33620	25629	
3081	0	33572	25615	
3082	0	33540	25626	
3083	0	33572	25620	
3084	0	33592	25618	
3085	0	33552	25624	
3086	0	33498	25618	
3087	0	33376	25626	
3088	0	33360	25623	
3089	0	33472	25624	
3090	0	33560	25626	
3091	0	33728	25612	
3092	0	33832	25630	
3093	0	33788	25628	
3094	0	33748	25615	
3095	0	33792	25621	
3096	0	33836	25612	
3097	0	33788	25620	
3098	0	33716	25615	
3099	0	33680	25626	
3100	0	33664	25622	
3101	0	33664	25607	
3102	0	33660	25615	
3103	0	33680	25614	
3104	0	33688	25624	
3105	0	33676	25620	
3106	0	33612	25607	
3107	0	33540	25622	
3108	0	33476	25627	
3109	0	33476	25616	
3110	0	33488	25625	
3111	0	33516	25623	
3112	0	33612	25624	
3113	0	33752	25617	
3114	0	33792	25620	
3115	0	33788	25607	
3116	0	33776	25621	
3117	0	33765	25619	
3118	0	33776	25622	
3119	0	33790	25623	
3120	0	33712	25607	
3121	0	33676	25607	
3122	0	33672	25615	
3123	0	33648	25607	
3124	0	33636	25623	
3125	0	33628	25620	
3126	0	33608	25618	
3127	0	33592	25623	
3128	0	33604	25607	
3129	0	33616	25616	
3130	0	33628	25620	
3131	0	33600	25607	
3132	0	33648	25624	
3133	0	33708	25621	
3134	0	33628	25627	
3135	0	33496	25621	
3136	0	33424	25607	
3137	0	33364	25622	
3138	0	33448	25620	
3139	0	33516	25622	
3140	0	33440	25615	
3141	0	33344	25614	
3142	0	33266	25614	
3143	0	33244	25619	
3144	0	33288	25613	
3145	0	33324	25616	
3146	0	33320	25607	
3147	0	33308	25621	
3148	0	33352	25618	
3149	0	33448	25616	
3150	0	33412	25617	
3151	0	33362	25622	
3152	0	33448	25622	
3153	0	33500	25607	
3154	0	33488	25623	
3155	0	33484	25618	
3156	0	33440	25620	
3157	0	33428	25621	
3158	0	33338	25615	
3159	0	33280	25623	
3160	0	33356	25607	
3161	0	33492	25616	
3162	0	33512	25620	
3163	0	33456	25607	
3164	0	33452	25617	
3165	0	33476	25617	
3166	0	33452	25612	
3167	0	33328	25621	
3168	0	33136	25614	
3169	0	33048	25622	
3170	0	33080	25615	
3171	0	33180	25622	
3172	0	33292	25623	
3173	0	33294	25617	
3174	0	33260	25628	
3175	0	33276	25620	
3176	0	33368	25615	
3177	0	33432	25622	
3178	0	33352	25617	
3179	0	33248	25607	
3180	0	33188	25618	
3181	0	33156	25617	
3182	0	33133	25615	
3183	0	33096	25617	
3184	0	33076	25614	
3185	0	33044	25617	
3186	0	33056	25607	
3187	0	33096	25607	
3188	0	33144	25624	
3189	0	33184	25615	
3190	0	33242	25622	
3191	0	33292	25617	
3192	0	33280	25615	
3193	0	33244	25623	
3194	0	33216	25616	
3195	0	33286	25616	
3196	0	33356	25625	
3197	0	33344	25619	
3198	0	33276	25618	
3199	0	33180	25618	
3200	0	33060	25620	
3201	0	32924	25625	
3202	0	32904	25616	
3203	0	33000	25616	
3204	0	33040	25616	
3205	0	33032	25623	
3206	0	32976	25624	
3207	0	32960	25620	
3208	0	33024	25618	
3209	0	33048	25624	
3210	0	33082	25624	
3211	0	33152	25620	
3212	0	33144	25625	
3213	0	33100	25622	
3214	0	33072	25624	
3215	0	33112	25616	
3216	0	33132	25613	
3217	0	33092	25622	
3218	0	33060	25622	
3219	0	33104	25619	
3220	0	33092	25625	
3221	0	33058	25622	
3222	0	33084	25617	
3223	0	33112	25620	
3224	0	33080	25620	
3225	0	32992	25607	
3226	0	32968	25624	
3227	0	32937	25614	
3228	0	32960	25622	
3229	0	32948	25607	
3230	0	32944	25628	
3231	0	32936	25625	
3232	0	32960	25614	
3233	0	33060	25622	
3234	0	33108	25620	
3235	0	33104	25623	
3236	0	33096	25626	
3237	0	33088	25625	
3238	0	33208	25623	
3239	0	33352	25621	
3240	0	33332	25617	
3241	0	33180	25625	
3242	0	33080	25620	
3243	0	33082	25618	
3244	0	33164	25623	
3245	0	33196	25620	
3246	0	33244	25607	
3247	0	33200	25629	
3248	0	33104	25626	
3249	0	33066	25615	
3250	0	33012	25628	
3251	0	32904	25622	
3252	0	32752	25614	
3253	0	32708	25623	
3254	0	32744	25622	
3255	0	32832	25612	
3256	0	32932	25620	
3257	0	32964	25624	
3258	0	32984	25618	
3259	0	33016	25622	
3260	0	33064	25623	
3261	0	33060	25620	
3262	0	33064	25620	
3263	0	33048	25610	
3264	0	33028	25622	
3265	0	33000	25617	
3266	0	33012	25622	
3267	0	32980	25629	
3268	0	32948	25632	
3269	0	32972	25623	
3270	0	32960	25617	
3271	0	32932	25621	
3272	0	32876	25621	
3273	0	32844	25621	
3274	0	32882	25617	
3275	0	32964	25619	
3276	0	33028	25618	
3277	0	33128	25618	
3278	0	33148	25617	
3279	0	33088	25628	
3280	0	33036	25614	
3281	0	33016	25625	
3282	0	33004	25626	
3283	0	32972	25629	
3284	0	32954	25624	
3285	0	32932	25628	
3286	0	32912	25626	
3287	0	32876	25618	
3288	0	32810	25626	
3289	0	32764	25620	
3290	0	32772	25625	
3291	0	32836	25622	
3292	0	32876	25631	
3293	0	32856	25630	
3294	0	32764	25617	
3295	0	32700	25623	
3296	0	32684	25621	
3297	0	32704	25625	
3298	0	32772	25626	
3299	0	32832	25592	
3300	0	32888	25620	
3301	0	32906	25617	
3302	0	32932	25626	
3303	0	32900	25619	
3304	0	32812	25626	
3305	0	32705	25627	
3306	0	32608	25629	
3307	0	32532	25630	
3308	0	32472	25616	
3309	0	32476	25631	
3310	0	32496	25626	
3311	0	32552	25624	
3312	0	32552	25630	
3313	0	32492	25626	
3314	0	32440	25630	
3315	0	32460	25639	
3316	0	32532	25632	
3317	0	32624	25631	
3318	0	32668	25628	
3319	0	32660	25628	
3320	0	32704	25618	
3321	0	32688	25631	
3322	0	32628	25620	
3323	0	32604	25630	
3324	0	32624	25626	
3325	0	32568	25635	
3326	0	32484	25631	
3327	0	32412	25625	
3328	0	32360	25629	
3329	0	32364	25626	
3330	0	32390	25628	
3331	0	32392	25631	
3332	0	32372	25620	
3333	0	32312	25626	
3334	0	32212	25634	
3335	0	32136	25628	
3336	0	32104	25630	
3337	0	32064	25623	
3338	0	32052	25632	
3339	0	32160	25629	
3340	0	32128	25624	
3341	0	32146	25626	
3342	0	32240	25625	
3343	0	32280	25628	
3344	0	32324	25631	
3345	0	32320	25632	
3346	0	32272	25629	
3347	0	32212	25636	
3348	0	32204	25631	
3349	0	32272	25634	
3350	0	32372	25631	
3351	0	32432	25630	
3352	0	32416	25635	
3353	0	32368	25622	
3354	0	32408	25631	
3355	0	32504	25631	
3356	0	32508	25636	
3357	0	32512	25628	
3358	0	32500	25626	
3359	0	32470	25628	
3360	0	32424	25623	
3361	0	32436	25626	
3362	0	32492	25620	
3363	0	32588	25630	
3364	0	32756	25625	
3365	0	32864	25630	
3366	0	32946	25623	
3367	0	33008	25638	
3368	0	33020	25624	
3369	0	32992	25634	
3370	0	33020	25632	
3371	0	33080	25626	
3372	0	33208	25628	
3373	0	33348	25623	
3374	0	33440	25628	
3375	0	33448	25623	
3376	0	33460	25633	
3377	0	33512	25628	
3378	0	33600	25629	
3379	0	33708	25625	
3380	0	33736	25636	
3381	0	33752	25627	
3382	0	33740	25630	
3383	0	33738	25627	
3384	0	33756	25629	
3385	0	33636	25631	
3386	0	33498	25637	
3387	0	33448	25626	
3388	0	33388	25630	
3389	0	33316	25632	
3390	0	33278	25631	
3391	0	33296	25623	
3392	0	33352	25631	
3393	0	33344	25632	
3394	0	33288	25621	
3395	0	33344	25635	
3396	0	33436	25628	
3397	0	33448	25632	
3398	0	33404	25627	
3399	0	33360	25630	
3400	0	33324	25637	
3401	0	33336	25620	
3402	0	33344	25622	
3403	0	33296	25621	
3404	0	33212	25627	
3405	0	33192	25620	
3406	0	33208	25623	
3407	0	33184	25622	
3408	0	33180	25628	
3409	0	33172	25626	
3410	0	33192	25629	
3411	0	33256	25635	
3412	0	33256	25626	
3413	0	33224	25631	
3414	0	33132	25626	
3415	0	33188	25630	
3416	0	33274	25624	
3417	0	33356	25616	
3418	0	33420	25626	
3419	0	33468	25624	
3420	0	33560	25626	
3421	0	33516	25630	
3422	0	33436	25622	
3423	0	33444	25630	
3424	0	33496	25628	
3425	0	33596	25624	
3426	0	33568	25625	
3427	0	33452	25628	
3428	0	33330	25622	
3429	0	33261	25628	
3430	0	33256	25628	
3431	0	33356	25625	
3432	0	33458	25632	
3433	0	33533	25620	
3434	0	33528	25631	
3435	0	33492	25630	
3436	0	33484	25638	
3437	0	33516	25629	
3438	0	33468	25633	
3439	0	33348	25628	
3440	0	33188	25636	
3441	0	33044	25638	
3442	0	32880	25636	
3443	0	32564	25639	
3444	0	32132	25630	
3445	0	31584	25638	
3446	0	31012	25643	
3447	0	30368	25642	
3448	0	29736	25649	
3449	0	29140	25644	
3450	0	28616	25646	
3451	0	28088	25646	
3452	0	27588	25652	
3453	0	27136	25649	
3454	0	26736	25658	
3455	0	26390	25664	
3456	0	25984	25658	
3457	0	25600	25671	
3458	0	25296	25665	
3459	0	25170	25664	
3460	0	25104	25663	
3461	0	25060	25666	
3462	0	25092	25657	
3463	0	25324	25668	
3464	0	25582	25676	
3465	0	25916	25664	
3466	0	26228	25665	
3467	0	26664	25656	
3468	0	27216	25663	
3469	0	27872	25671	
3470	0	28572	25661	
3471	0	29232	25662	
3472	0	29912	25655	
3473	0	30740	25656	
3474	0	31640	25652	
3475	0	32500	25649	
3476	0	33314	25646	
3477	0	34160	25646	
3478	0	34932	25640	
3479	0	35604	25626	
3480	0	36248	25641	
3481	0	36740	25625	
3482	0	37024	25637	
3483	0	37080	25620	
3484	0	37048	25634	
3485	0	36932	25621	
3486	0	36772	25639	
3487	0	36672	25622	
3488	0	36624	25607	
3489	0	36576	25622	
3490	0	36468	25614	
3491	0	36352	25629	
3492	0	36204	25619	
3493	0	36084	25622	
3494	0	35992	25607	
3495	0	35908	25620	
3496	0	35848	25607	
3497	0	35792	25628	
3498	0	35756	25620	
3499	0	35672	25607	
3500	0	35556	25628	
3501	0	35384	25607	
3502	0	35188	25607	
3503	0	34980	25621	
3504	0	34772	25619	
3505	0	34584	25618	
3506	0	34372	25618	
3507	0	34212	25620	
3508	0	34064	25616	
3509	0	33952	25616	
3510	0	33896	25620	
3511	0	33840	25607	
3512	0	33840	25618	
3513	0	33856	25616	
3514	0	33808	25620	
3515	0	33768	25607	
3516	0	33724	25618	
3517	0	33704	25607	
3518	0	33685	25616	
3519	0	33668	25607	
3520	0	33585	25607	
3521	0	33544	25607	
3522	0	33540	25607	
3523	0	33508	25605	
3524	0	33466	25607	
3525	0	33381	25604	
3526	0	33312	25612	
3527	0	33257	25607	
3528	0	33258	25614	
3529	0	33272	25607	
3530	0	33328	25607	
3531	0	33416	25607	
3532	0	33488	25617	
3533	0	33500	25607	
3534	0	33418	25617	
3535	0	33389	25607	
3536	0	33304	25617	
3537	0	33208	25607	
3538	0	33164	25614	
3539	0	33184	25607	
3540	0	33204	25607	
3541	0	33176	25607	
3542	0	33132	25600	
3543	0	33076	25607	
3544	0	33140	25607	
3545	0	33192	25614	
3546	0	33136	25607	
3547	0	33144	25604	
3548	0	33194	25607	
3549	0	33098	25607	
3550	0	33020	25606	
3551	0	33056	25606	
3552	0	33112	25607	
3553	0	33160	25605	
3554	0	33152	25607	
3555	0	33120	25604	
3556	0	33124	25614	
3557	0	33160	25607	
3558	0	33196	25607	
3559	0	33188	25607	
3560	0	33060	25607	
3561	0	32968	25607	
3562	0	32936	25602	
3563	0	32944	25607	
3564	0	32984	25596	
3565	0	32988	25606	
3566	0	33016	25597	
3567	0	33032	25607	
3568	0	32992	25604	
3569	0	32937	25605	
3570	0	32960	25602	
3571	0	32968	25607	
3572	0	32972	25600	
3573	0	32972	25607	
3574	0	32992	25607	
3575	0	33001	25607	
3576	0	32924	25607	
3577	0	32880	25607	
3578	0	32852	25607	
3579	0	32820	25605	
3580	0	32760	25604	
3581	0	32652	25606	
3582	0	32572	25603	
3583	0	32558	25602	
3584	0	32630	25604	
3585	0	32668	25597	
3586	0	32638	25604	
3587	0	32596	25606	
3588	0	32582	25607	
3589	0	32588	25605	
3590	0	32628	25607	
3591	0	32696	25602	
3592	0	32788	25601	
3593	0	32872	25599	
3594	0	32880	25607	
3595	0	32834	25604	
3596	0	32800	25602	
3597	0	32780	25606	
3598	0	32748	25599	
3599	0	32744	25594	
3600	0	32736	25605	
3601	0	32736	25599	
3602	0	32752	25600	
3603	0	32772	25594	
3604	0	32824	25601	
3605	0	32840	25601	
3606	0	32804	25602	
3607	0	32764	25602	
3608	0	32712	25605	
3609	0	32618	25606	
3610	0	32572	25604	
3611	0	32592	25601	
3612	0	32572	25607	
3613	0	32572	25602	
3614	0	32540	25607	
3615	0	32546	25600	
3616	0	32536	25606	
3617	0	32436	25602	
3618	0	32360	25607	
3619	0	32382	25600	
3620	0	32476	25599	
3621	0	32484	25604	
3622	0	32488	25599	
3623	0	32472	25603	
3624	0	32404	25606	
3625	0	32356	25607	
3626	0	32296	25594	
3627	0	32276	25607	
3628	0	32308	25607	
3629	0	32344	25607	
3630	0	32348	25603	
3631	0	32300	25607	
3632	0	32244	25602	
3633	0	32156	25606	
3634	0	32032	25601	
3635	0	31996	25602	
3636	0	31996	25599	
3637	0	32088	25598	
3638	0	32196	25605	
3639	0	32192	25598	
3640	0	32084	25604	
3641	0	31961	25604	
3642	0	31856	25607	
3643	0	31758	25602	
3644	0	31860	25605	
3645	0	32064	25603	
3646	0	32164	25605	
3647	0	32172	25604	
3648	0	32064	25607	
3649	0	31972	25598	
3650	0	31988	25602	
3651	0	32020	25602	
3652	0	32036	25604	
3653	0	32004	25607	
3654	0	31928	25606	
3655	0	31852	25604	
3656	0	31808	25598	
3657	0	31820	25606	
3658	0	31850	25607	
3659	0	31852	25601	
3660	0	31836	25601	
3661	0	31768	25604	
3662	0	31716	25596	
3663	0	31764	25601	
3664	0	31828	25600	
3665	0	31825	25605	
3666	0	31808	25604	
3667	0	31756	25604	
3668	0	31692	25602	
3669	0	31648	25605	
3670	0	31648	25607	
3671	0	31688	25604	
3672	0	31732	25607	
3673	0	31816	25607	
3674	0	31768	25604	
3675	0	31736	25603	
3676	0	31788	25607	
3677	0	31888	25604	
3678	0	31972	25602	
3679	0	31968	25602	
3680	0	31892	25607	
3681	0	31752	25605	
3682	0	31718	25607	
3683	0	31718	25602	
3684	0	31740	25607	
3685	0	31748	25605	
3686	0	31740	25604	
3687	0	31672	25607	
3688	0	31620	25607	
3689	0	31554	25606	
3690	0	31602	25604	
3691	0	31728	25607	
3692	0	31792	25602	
3693	0	31818	25607	
3694	0	31748	25607	
3695	0	31620	25607	
3696	0	31598	25607	
3697	0	31676	25607	
3698	0	31780	25607	
3699	0	31868	25607	
3700	0	31829	25600	
3701	0	31776	25604	
3702	0	31824	25607	
3703	0	31857	25606	
3704	0	31864	25607	
3705	0	31884	25607	
3706	0	31928	25607	
3707	0	32048	25601	
3708	0	32142	25607	
3709	0	32108	25607	
3710	0	31964	25612	
3711	0	31864	25606	
3712	0	31832	25621	
3713	0	31848	25607	
3714	0	31884	25607	
3715	0	31984	25604	
3716	0	32080	25607	
3717	0	32168	25607	
3718	0	32268	25605	
3719	0	32298	25607	
3720	0	32300	25607	
3721	0	32304	25607	
3722	0	32332	25607	
3723	0	32336	25607	
3724	0	32412	25607	
3725	0	32576	25600	
3726	0	32660	25622	
3727	0	32672	25607	
3728	0	32629	25605	
3729	0	32644	25607	
3730	0	32692	25607	
3731	0	32784	25607	
3732	0	32892	25604	
3733	0	32892	25606	
3734	0	32832	25607	
3735	0	32800	25607	
3736	0	32808	25607	
3737	0	32812	25607	
3738	0	32884	25607	
3739	0	32960	25607	
3740	0	33012	25607	
3741	0	33020	25607	
3742	0	32936	25600	
3743	0	32948	25607	
3744	0	33076	25598	
3745	0	33184	25606	
3746	0	33232	25603	
3747	0	33224	25607	
3748	0	33220	25603	
3749	0	33232	25606	
3750	0	33244	25606	
3751	0	33252	25604	
3752	0	33168	25604	
3753	0	33080	25607	
3754	0	33076	25606	
3755	0	33168	25613	
3756	0	33316	25604	
3757	0	33472	25581	
3758	0	33521	25607	
3759	0	33488	25604	
3760	0	33448	25604	
3761	0	33472	25607	
3762	0	33508	25602	
3763	0	33544	25604	
3764	0	33608	25600	
3765	0	33660	25604	
3766	0	33664	25600	
3767	0	33592	25607	
3768	0	33548	25607	
3769	0	33524	25602	
3770	0	33568	25604	
3771	0	33612	25598	
3772	0	33632	25607	
3773	0	33632	25606	
3774	0	33532	25607	
3775	0	33440	25604	
3776	0	33472	25604	
3777	0	33528	25602	
3778	0	33668	25604	
3779	0	33768	25604	
3780	0	33760	25604	
3781	0	33740	25607	
3782	0	33744	25603	
3783	0	33769	25606	
3784	0	33804	25607	
3785	0	33776	25607	
3786	0	33712	25593	
3787	0	33716	25603	
3788	0	33756	25596	
3789	0	33728	25607	
3790	0	33664	25601	
3791	0	33640	25602	
3792	0	33636	25592	
3793	0	33652	25607	
3794	0	33632	25602	
3795	0	33628	25604	
3796	0	33688	25598	
3797	0	33736	25607	
3798	0	33772	25607	
3799	0	33788	25607	
3800	0	33688	25605	
3801	0	33598	25588	
3802	0	33560	25599	
3803	0	33552	25596	
3804	0	33672	25600	
3805	0	33780	25599	
3806	0	33848	25603	
3807	0	33812	25604	
3808	0	33652	25606	
3809	0	33508	25600	
3810	0	33452	25607	
3811	0	33460	25605	
3812	0	33520	25598	
3813	0	33632	25607	
3814	0	33665	25601	
3815	0	33632	25607	
3816	0	33649	25604	
3817	0	33680	25597	
3818	0	33680	25602	
3819	0	33684	25602	
3820	0	33708	25606	
3821	0	33676	25598	
3822	0	33560	25605	
3823	0	33396	25604	
3824	0	33309	25607	
3825	0	33268	25607	
3826	0	33254	25599	
3827	0	33204	25607	
3828	0	33168	25597	
3829	0	33152	25604	
3830	0	33184	25607	
3831	0	33228	25604	
3832	0	33224	25605	
3833	0	33292	25604	
3834	0	33410	25604	
3835	0	33516	25604	
3836	0	33500	25604	
3837	0	33476	25604	
3838	0	33484	25604	
3839	0	33432	25600	
3840	0	33360	25604	
3841	0	33312	25600	
3842	0	33320	25607	
3843	0	33396	25607	
3844	0	33460	25604	
3845	0	33472	25607	
3846	0	33440	25601	
3847	0	33449	25604	
3848	0	33472	25599	
3849	0	33472	25607	
3850	0	33456	25599	
3851	0	33400	25596	
3852	0	33368	25592	
3853	0	33372	25604	
3854	0	33324	25606	
3855	0	33300	25606	
3856	0	33292	25602	
3857	0	33257	25600	
3858	0	33248	25602	
3859	0	33224	25594	
3860	0	33180	25606	
3861	0	33224	25593	
3862	0	33260	25600	
3863	0	33284	25595	
3864	0	33264	25601	
3865	0	33220	25602	
3866	0	33188	25604	
3867	0	33136	25592	
3868	0	33100	25607	
3869	0	33102	25600	
3870	0	33126	25605	
3871	0	33152	25602	
3872	0	33176	25593	
3873	0	33184	25604	
3874	0	33184	25597	
3875	0	33136	25602	
3876	0	33152	25595	
3877	0	33248	25599	
3878	0	33212	25598	
3879	0	33184	25604	
3880	0	33184	25595	
3881	0	33120	25602	
3882	0	33072	25589	
3883	0	33064	25602	
3884	0	33044	25596	
3885	0	33040	25596	
3886	0	33070	25597	
3887	0	33144	25597	
3888	0	33104	25607	
3889	0	33020	25596	
3890	0	33020	25596	
3891	0	33052	25600	
3892	0	33016	25598	
3893	0	32942	25596	
3894	0	32924	25596	
3895	0	32984	25592	
3896	0	33064	25599	
3897	0	33108	25590	
3898	0	33122	25598	
3899	0	33152	25590	
3900	0	33148	25598	
3901	0	33160	25592	
3902	0	33160	25596	
3903	0	33088	25590	
3904	0	33052	25592	
3905	0	32984	25592	
3906	0	32928	25592	
3907	0	32920	25589	
3908	0	32980	25596	
3909	0	33024	25588	
3910	0	33000	25593	
3911	0	33004	25598	
3912	0	33040	25597	
3913	0	33064	25596	
3914	0	33082	25601	
3915	0	33108	25594	
3916	0	33128	25596	
3917	0	33200	25592	
3918	0	33240	25597	
3919	0	33248	25589	
3920	0	33197	25596	
3921	0	33128	25597	
3922	0	33044	25592	
3923	0	33060	25591	
3924	0	33128	25587	
3925	0	33208	25588	
3926	0	33268	25585	
3927	0	33258	25591	
3928	0	33214	25586	
3929	0	33216	25595	
3930	0	33292	25588	
3931	0	33352	25597	
3932	0	33352	25587	
3933	0	33288	25589	
3934	0	33208	25598	
3935	0	33168	25590	
3936	0	33204	25588	
3937	0	33284	25592	
3938	0	33368	25593	
3939	0	33364	25581	
3940	0	33428	25591	
3941	0	33352	25584	
3942	0	33266	25588	
3943	0	33200	25580	
3944	0	33160	25592	
3945	0	33148	25583	
3946	0	33076	25580	
3947	0	33048	25591	
3948	0	33048	25588	
3949	0	33080	25580	
3950	0	33176	25588	
3951	0	33248	25583	
3952	0	33272	25588	
3953	0	33202	25588	
3954	0	33144	25590	
3955	0	33098	25582	
3956	0	33104	25589	
3957	0	33148	25584	
3958	0	33184	25579	
3959	0	33212	25584	
3960	0	33208	25572	
3961	0	33084	25582	
3962	0	33044	25580	
3963	0	33128	25588	
3964	0	33197	25589	
3965	0	33136	25581	
3966	0	33088	25580	
3967	0	33068	25580	
3968	0	33064	25583	
3969	0	33044	25588	
3970	0	33056	25578	
3971	0	33088	25586	
3972	0	33094	25582	
3973	0	33024	25583	
3974	0	32926	25582	
3975	0	32824	25585	
3976	0	32770	25581	
3977	0	32784	25580	
3978	0	32812	25580	
3979	0	32816	25574	
3980	0	32840	25582	
3981	0	32880	25574	
3982	0	32904	25578	
3983	0	32896	25569	
3984	0	32920	25580	
3985	0	32880	25573	
3986	0	32804	25574	
3987	0	32724	25576	
3988	0	32716	25580	
3989	0	32682	25575	
3990	0	32580	25579	
3991	0	32512	25570	
3992	0	32520	25572	
3993	0	32620	25566	
3994	0	32680	25582	
3995	0	32724	25570	
3996	0	32808	25572	
3997	0	32856	25578	
3998	0	32897	25577	
3999	0	32881	25574	
4000	0	32800	25583	
4001	0	32656	25577	
4002	0	32580	25568	
4003	0	32624	25575	
4004	0	32680	25568	
4005	0	32680	25572	
4006	0	32604	25572	
4007	0	32542	25578	
4008	0	32496	25564	
4009	0	32360	25576	
4010	0	32373	25570	
4011	0	32472	25576	
4012	0	32600	25570	
4013	0	32616	25577	
4014	0	32536	25575	
4015	0	32512	25578	
4016	0	32452	25572	
4017	0	32276	25575	
4018	0	32320	25568	
4019	0	32472	25570	
4020	0	32356	25564	
4021	0	32149	25564	
4022	0	32084	25572	
4023	0	32152	25568	
4024	0	32212	25569	
4025	0	32200	25572	
4026	0	32156	25538	
4027	0	32168	25569	
4028	0	32208	25563	
4029	0	32158	25571	
4030	0	32168	25566	
4031	0	32248	25567	
4032	0	32332	25562	
4033	0	32420	25576	
4034	0	32408	25573	
4035	0	32385	25573	
4036	0	32388	25572	
4037	0	32449	25562	
4038	0	32544	25568	
4039	0	32612	25557	
4040	0	32700	25564	
4041	0	32712	25563	
4042	0	32697	25570	
4043	0	32628	25565	
4044	0	32654	25563	
4045	0	32724	25560	
4046	0	32816	25557	
4047	0	32888	25563	
4048	0	32870	25562	
4049	0	32942	25567	
4050	0	32906	25564	
4051	0	32908	25555	
4052	0	32992	25564	
4053	0	33040	25557	
4054	0	33064	25562	
4055	0	33180	25556	
4056	0	33248	25562	
4057	0	33276	25558	
4058	0	33445	25553	
4059	0	33596	25556	
4060	0	33628	25560	
4061	0	33632	25556	
4062	0	33680	25560	
4063	0	33716	25557	
4064	0	33713	25556	
4065	0	33653	25557	
4066	0	33560	25559	
4067	0	33516	25550	
4068	0	33540	25557	
4069	0	33498	25552	
4070	0	33496	25557	
4071	0	33464	25551	
4072	0	33425	25551	
4073	0	33304	25557	
4074	0	33120	25553	
4075	0	33016	25560	
4076	0	32940	25559	
4077	0	32944	25544	
4078	0	33052	25556	
4079	0	33124	25557	
4080	0	33052	25549	
4081	0	32948	25556	
4082	0	32920	25550	
4083	0	32980	25556	
4084	0	33102	25548	
4085	0	33208	25540	
4086	0	33288	25555	
4087	0	33276	25551	
4088	0	33252	25548	
4089	0	33287	25556	
4090	0	33344	25548	
4091	0	33396	25551	
4092	0	33481	25553	
4093	0	33648	25544	
4094	0	33708	25557	
4095	0	33620	25550	
4096	0	33622	25550	
4097	0	33612	25550	
4098	0	33524	25545	
4099	0	33460	25553	
4100	0	33400	25552	
4101	0	33332	25542	
4102	0	33280	25548	
4103	0	33276	25543	
4104	0	33304	25551	
4105	0	33344	25553	
4106	0	33368	25548	
4107	0	33428	25548	
4108	0	33536	25556	
4109	0	33524	25545	
4110	0	33385	25545	
4111	0	33284	25548	
4112	0	33288	25540	
4113	0	33288	25550	
4114	0	33274	25548	
4115	0	33332	25552	
4116	0	33480	25551	
4117	0	33740	25544	
4118	0	33949	25557	
4119	0	34064	25552	
4120	0	33920	25554	
4121	0	33728	25552	
4122	0	33520	25543	
4123	0	33312	25552	
4124	0	33121	25555	
4125	0	32864	25556	
4126	0	32448	25552	
4127	0	31916	25559	
4128	0	31348	25554	
4129	0	30792	25560	
4130	0	30220	25554	
4131	0	29632	25564	
4132	0	29088	25568	
4133	0	28554	25572	
4134	0	27972	25566	
4135	0	27468	25578	
4136	0	27028	25578	
4137	0	26620	25572	
4138	0	26304	25570	
4139	0	26028	25588	
4140	0	25761	25578	
4141	0	25488	25588	
4142	0	25240	25581	
4143	0	25096	25576	
4144	0	25076	25598	
4145	0	25136	25591	
4146	0	25276	25588	
4147	0	25532	25602	
4148	0	25848	25590	
4149	0	26226	25588	
4150	0	26724	25592	
4151	0	27308	25588	
4152	0	27964	25592	
4153	0	28636	25587	
4154	0	29336	25583	
4155	0	30096	25576	
4156	0	30968	25570	
4157	0	31900	25579	
4158	0	32768	25569	
4159	0	33624	25568	
4160	0	34448	25561	
4161	0	35141	25566	
4162	0	35770	25554	
4163	0	36328	25543	
4164	0	36792	25550	
4165	0	37048	25540	
4166	0	37128	25556	
4167	0	37084	25552	
4168	0	37008	25552	
4169	0	36892	25540	
4170	0	36784	25558	
4171	0	36752	25552	
4172	0	36748	25532	
4173	0	36712	25556	
4174	0	36576	25553	
4175	0	36432	25537	
4176	0	36264	25547	
4177	0	36072	25548	
4178	0	35908	25555	
4179	0	35716	25549	
4180	0	35504	25540	
4181	0	35336	25551	
4182	0	35168	25543	
4183	0	34992	25550	
4184	0	34900	25536	
4185	0	34804	25532	
4186	0	34700	25544	
4187	0	34576	25551	
4188	0	34472	25535	
4189	0	34416	25544	
4190	0	34368	25540	
4191	0	34328	25548	
4192	0	34276	25541	
4193	0	34224	25543	
4194	0	34152	25554	
4195	0	34040	25541	
4196	0	33892	25551	
4197	0	33832	25546	
4198	0	33832	25545	
4199	0	33840	25546	
4200	0	33788	25534	
4201	0	33714	25538	
4202	0	33642	25539	
4203	0	33592	25542	
4204	0	33584	25534	
4205	0	33540	25549	
4206	0	33432	25543	
4207	0	33364	25537	
4208	0	33344	25543	
4209	0	33344	25537	
4210	0	33396	25544	
4211	0	33468	25542	
4212	0	33476	25548	
4213	0	33486	25544	
4214	0	33448	25541	
4215	0	33396	25543	
4216	0	33416	25542	
4217	0	33496	25544	
4218	0	33564	25541	
4219	0	33568	25532	
4220	0	33464	25540	
4221	0	33408	25543	
4222	0	33388	25543	
4223	0	33372	25544	
4224	0	33292	25540	
4225	0	33228	25543	
4226	0	33140	25538	
4227	0	33076	25549	
4228	0	33104	25541	
4229	0	33116	25552	
4230	0	33080	25540	
4231	0	33084	25546	
4232	0	33116	25544	
4233	0	33136	25540	
4234	0	33116	25548	
4235	0	33134	25540	
4236	0	33136	25541	
4237	0	33128	25549	
4238	0	33148	25532	
4239	0	33116	25545	
4240	0	33068	25536	
4241	0	33036	25540	
4242	0	33068	25532	
4243	0	33156	25538	
4244	0	33220	25536	
4245	0	33104	25537	
4246	0	33013	25540	
4247	0	32984	25541	
4248	0	33012	25543	
4249	0	33064	25539	
4250	0	33104	25550	
4251	0	33140	25543	
4252	0	33176	25544	
4253	0	33184	25543	
4254	0	33164	25533	
4255	0	33108	25543	
4256	0	33116	25534	
4257	0	33108	25538	
4258	0	33084	25535	
4259	0	33012	25548	
4260	0	32960	25537	
4261	0	32932	25536	
4262	0	32884	25538	
4263	0	32844	25535	
4264	0	32912	25532	
4265	0	32964	25535	
4266	0	32968	25535	
4267	0	32940	25536	
4268	0	32912	25541	
4269	0	32876	25542	
4270	0	32896	25536	
4271	0	32928	25542	
4272	0	32904	25538	
4273	0	32876	25536	
4274	0	32848	25540	
4275	0	32868	25538	
4276	0	32872	25540	
4277	0	32924	25540	
4278	0	32992	25534	
4279	0	32988	25540	
4280	0	32932	25535	
4281	0	32864	25530	
4282	0	32828	25537	
4283	0	32744	25535	
4284	0	32680	25534	
4285	0	32692	25528	
4286	0	32700	25540	
4287	0	32664	25537	
4288	0	32588	25537	
4289	0	32532	25536	
4290	0	32532	25535	
4291	0	32600	25532	
4292	0	32624	25543	
4293	0	32588	25537	
4294	0	32544	25541	
4295	0	32564	25537	
4296	0	32576	25534	
4297	0	32564	25543	
4298	0	32540	25543	
4299	0	32560	25540	
4300	0	32608	25536	
4301	0	32624	25538	
4302	0	32616	25532	
4303	0	32584	25541	
4304	0	32608	25535	
4305	0	32600	25541	
4306	0	32564	25534	
4307	0	32524	25538	
4308	0	32492	25535	
4309	0	32461	25543	
4310	0	32464	25532	
4311	0	32484	25543	
4312	0	32488	25540	
4313	0	32484	25545	
4314	0	32440	25544	
4315	0	32380	25539	
4316	0	32336	25536	
4317	0	32240	25538	
4318	0	32184	25540	
4319	0	32148	25536	
4320	0	32156	25539	
4321	0	32058	25533	
4322	0	32001	25532	
4323	0	32024	25537	
4324	0	32056	25541	
4325	0	32052	25541	
4326	0	32074	25540	
4327	0	32076	25541	
4328	0	32004	25541	
4329	0	31984	25540	
4330	0	31996	25541	
4331	0	32108	25541	
4332	0	32212	25543	
4333	0	32289	25537	
4334	0	32296	25535	
4335	0	32202	25546	
4336	0	32148	25544	
4337	0	32158	25543	
4338	0	32152	25543	
4339	0	32124	25534	
4340	0	32066	25545	
4341	0	31952	25536	
4342	0	31854	25537	
4343	0	31808	25538	
4344	0	31840	25538	
4345	0	31864	25540	
4346	0	31888	25541	
4347	0	31912	25541	
4348	0	31892	25543	
4349	0	31860	25548	
4350	0	31856	25543	
4351	0	31916	25548	
4352	0	31876	25545	
4353	0	31880	25542	
4354	0	31772	25552	
4355	0	31628	25525	
4356	0	31632	25548	
4357	0	31612	25543	
4358	0	31600	25541	
4359	0	31544	25547	
4360	0	31544	25548	
4361	0	31556	25536	
4362	0	31528	25542	
4363	0	31452	25540	
4364	0	31412	25545	
4365	0	31452	25545	
4366	0	31508	25543	
4367	0	31624	25545	
4368	0	31652	25551	
4369	0	31648	25542	
4370	0	31620	25548	
4371	0	31656	25540	
4372	0	31750	25541	
4373	0	31846	25540	
4374	0	31792	25550	
4375	0	31752	25543	
4376	0	31736	25551	
4377	0	31714	25542	
4378	0	31744	25544	
4379	0	31762	25546	
4380	0	31792	25548	
4381	0	31864	25524	
4382	0	31860	25546	
4383	0	31828	25539	
4384	0	31876	25551	
4385	0	32044	25542	
4386	0	32060	25546	
4387	0	31980	25545	
4388	0	31949	25548	
4389	0	31948	25552	
4390	0	31936	25544	
4391	0	31933	25545	
4392	0	32026	25542	
4393	0	32048	25548	
4394	0	32076	25542	
4395	0	32068	25548	
4396	0	32066	25546	
4397	0	32112	25543	
4398	0	32128	25551	
4399	0	32048	25540	
4400	0	32016	25549	
4401	0	32044	25542	
4402	0	32052	25540	
4403	0	32160	25546	
4404	0	32272	25549	
4405	0	32264	25542	
4406	0	32332	25543	
4407	0	32336	25551	
4408	0	32320	25546	
4409	0	32312	25546	
4410	0	32400	25547	
4411	0	32492	25546	
4412	0	32568	25546	
4413	0	32628	25540	
4414	0	32680	25543	
4415	0	32712	25546	
4416	0	32768	25541	
4417	0	32824	25545	
4418	0	32884	25537	
4419	0	32848	25545	
4420	0	32860	25540	
4421	0	32816	25540	
4422	0	32784	25533	
4423	0	32804	25540	
4424	0	32932	25536	
4425	0	32976	25543	
4426	0	32964	25540	
4427	0	32932	25547	
4428	0	32928	25542	
4429	0	32936	25543	
4430	0	32932	25546	
4431	0	33050	25540	
4432	0	33152	25547	
4433	0	33280	25541	
4434	0	33360	25543	
4435	0	33400	25535	
4436	0	33422	25548	
4437	0	33476	25536	
4438	0	33628	25542	
4439	0	33676	25540	
4440	0	33564	25534	
4441	0	33500	25538	
4442	0	33456	25532	
4443	0	33424	25540	
4444	0	33384	25533	
4445	0	33360	25545	
4446	0	33428	25532	
4447	0	33584	25538	
4448	0	33628	25538	
4449	0	33472	25537	
4450	0	33344	25528	
4451	0	33372	25542	
4452	0	33344	25533	
4453	0	33368	25538	
4454	0	33384	25537	
4455	0	33409	25532	
4456	0	33472	25534	
4457	0	33572	25528	
4458	0	33644	25533	
4459	0	33736	25531	
4460	0	33788	25536	
4461	0	33762	25526	
4462	0	33768	25536	
4463	0	33752	25524	
4464	0	33697	25536	
4465	0	33696	25532	
4466	0	33594	25537	
4467	0	33584	25535	
4468	0	33628	25528	
4469	0	33536	25533	
4470	0	33540	25540	
4471	0	33536	25536	
4472	0	33496	25529	
4473	0	33484	25533	
4474	0	33544	25535	
4475	0	33600	25535	
4476	0	33586	25537	
4477	0	33560	25532	
4478	0	33456	25535	
4479	0	33364	25534	
4480	0	33312	25536	
4481	0	33232	25532	
4482	0	33180	25526	
4483	0	33278	25528	
4484	0	33384	25520	
4485	0	33438	25534	
4486	0	33400	25531	
4487	0	33420	25534	
4488	0	33444	25528	
4489	0	33468	25524	
4490	0	33476	25532	
4491	0	33486	25530	
4492	0	33484	25536	
4493	0	33476	25527	
4494	0	33464	25536	
4495	0	33476	25532	
4496	0	33452	25538	
4497	0	33416	25532	
4498	0	33396	25524	
4499	0	33380	25535	
4500	0	33428	25535	
4501	0	33404	25521	
4502	0	33324	25534	
4503	0	33240	25524	
4504	0	33184	25532	
4505	0	33220	25526	
4506	0	33236	25535	
4507	0	33242	25529	
4508	0	33136	25535	
4509	0	33152	25524	
4510	0	33216	25532	
4511	0	33252	25520	
4512	0	33272	25534	
4513	0	33312	25533	
4514	0	33392	25533	
4515	0	33424	25532	
4516	0	33328	25530	
4517	0	33260	25537	
4518	0	33288	25530	
4519	0	33287	25525	
4520	0	33232	25527	
4521	0	33244	25522	
4522	0	33180	25533	
4523	0	33108	25532	
4524	0	33104	25528	
4525	0	33120	25532	
4526	0	33097	25532	
4527	0	33060	25535	
4528	0	33036	25535	
4529	0	33024	25535	
4530	0	33044	25535	
4531	0	33112	25529	
4532	0	33172	25526	
4533	0	33196	25524	
4534	0	33224	25527	
4535	0	33216	25528	
4536	0	33200	25536	
4537	0	33130	25524	
4538	0	32988	25530	
4539	0	32968	25521	
4540	0	33076	25531	
4541	0	33121	25524	
4542	0	33120	25534	
4543	0	33076	25524	
4544	0	33172	25522	
4545	0	33136	25528	
4546	0	32992	25534	
4547	0	32852	25534	
4548	0	32812	25528	
4549	0	32820	25526	
4550	0	32772	25528	
4551	0	32816	25528	
4552	0	32876	25525	
4553	0	32899	25532	
4554	0	32916	25529	
4555	0	32928	25537	
4556	0	33000	25528	
4557	0	33030	25520	
4558	0	33096	25528	
4559	0	33124	25521	
4560	0	33174	25525	
4561	0	33232	25527	
4562	0	33228	25521	
4563	0	33208	25531	
4564	0	33280	25526	
4565	0	33216	25532	
4566	0	33116	25518	
4567	0	33020	25532	
4568	0	32932	25524	
4569	0	32856	25537	
4570	0	32776	25524	
4571	0	32832	25535	
4572	0	33012	25525	
4573	0	33140	25527	
4574	0	33054	25532	
4575	0	32972	25529	
4576	0	33036	25527	
4577	0	33072	25532	
4578	0	33052	25523	
4579	0	33081	25525	
4580	0	33080	25520	
4581	0	33016	25525	
4582	0	33034	25517	
4583	0	33048	25528	
4584	0	33072	25528	
4585	0	33032	25530	
4586	0	33012	25530	
4587	0	32976	25532	
4588	0	32956	25535	
4589	0	32918	25530	
4590	0	32888	25530	
4591	0	32905	25524	
4592	0	32890	25522	
4593	0	32864	25531	
4594	0	32821	25528	
4595	0	32836	25530	
4596	0	32876	25530	
4597	0	32872	25531	
4598	0	32878	25529	
4599	0	32862	25530	
4600	0	32860	25525	
4601	0	32888	25524	
4602	0	32940	25525	
4603	0	33124	25534	
4604	0	33164	25524	
4605	0	33124	25530	
4606	0	33088	25525	
4607	0	33060	25532	
4608	0	32896	25524	
4609	0	32648	25528	
4610	0	32576	25528	
4611	0	32704	25533	
4612	0	32712	25524	
4613	0	32684	25529	
4614	0	32732	25527	
4615	0	32760	25527	
4616	0	32840	25530	
4617	0	32932	25532	
4618	0	32996	25527	
4619	0	33052	25530	
4620	0	33102	25516	
4621	0	33044	25527	
4622	0	33024	25525	
4623	0	33080	25524	
4624	0	33188	25523	
4625	0	33240	25524	
4626	0	33232	25532	
4627	0	33184	25527	
4628	0	33152	25529	
4629	0	33116	25525	
4630	0	33160	25525	
4631	0	33173	25524	
4632	0	33136	25522	
4633	0	33136	25524	
4634	0	33056	25525	
4635	0	32929	25522	
4636	0	32916	25518	
4637	0	32976	25521	
4638	0	32952	25517	
4639	0	32932	25519	
4640	0	32944	25517	
4641	0	32892	25521	
4642	0	32820	25513	
4643	0	32812	25526	
4644	0	33052	25523	
4645	0	33200	25523	
4646	0	33192	25521	
4647	0	33176	25519	
4648	0	33092	25525	
4649	0	33020	25525	
4650	0	33018	25527	
4651	0	33100	25523	
4652	0	33164	25516	
4653	0	33168	25527	
4654	0	33108	25521	
4655	0	33104	25520	
4656	0	33172	25524	
4657	0	33240	25525	
4658	0	33260	25523	
4659	0	33200	25522	
4660	0	33080	25529	
4661	0	32960	25521	
4662	0	32856	25524	
4663	0	32768	25521	
4664	0	32692	25521	
4665	0	32644	25525	
4666	0	32604	25527	
4667	0	32576	25516	
4668	0	32502	25525	
4669	0	32500	25519	
4670	0	32604	25526	
4671	0	32692	25495	
4672	0	32641	25531	
4673	0	32588	25529	
4674	0	32564	25522	
4675	0	32576	25524	
4676	0	32624	25517	
4677	0	32600	25521	
4678	0	32612	25519	
4679	0	32612	25521	
4680	0	32604	25523	
4681	0	32640	25518	
4682	0	32672	25514	
4683	0	32648	25519	
4684	0	32688	25513	
4685	0	32760	25521	
4686	0	32840	25516	
4687	0	32741	25524	
4688	0	32672	25519	
4689	0	32648	25527	
4690	0	32602	25523	
4691	0	32586	25527	
4692	0	32608	25526	
4693	0	32632	25533	
4694	0	32604	25527	
4695	0	32628	25523	
4696	0	32633	25530	
4697	0	32653	25525	
4698	0	32648	25524	
4699	0	32688	25524	
4700	0	32724	25521	
4701	0	32528	25526	
4702	0	32368	25525	
4703	0	32336	25525	
4704	0	32352	25522	
4705	0	32304	25531	
4706	0	32356	25526	
4707	0	32504	25526	
4708	0	32392	25523	
4709	0	32344	25524	
4710	0	32312	25527	
4711	0	32380	25524	
4712	0	32432	25530	
4713	0	32440	25524	
4714	0	32400	25530	
4715	0	32365	25521	
4716	0	32316	25530	
4717	0	32252	25520	
4718	0	32248	25516	
4719	0	32314	25529	
4720	0	32336	25528	
4721	0	32300	25518	
4722	0	32212	25527	
4723	0	32168	25516	
4724	0	32208	25522	
4725	0	32252	25520	
4726	0	32304	25527	
4727	0	32288	25524	
4728	0	32268	25519	
4729	0	32312	25527	
4730	0	32420	25523	
4731	0	32652	25527	
4732	0	32768	25527	
4733	0	32824	25513	
4734	0	32818	25525	
4735	0	32784	25519	
4736	0	32732	25524	
4737	0	32768	25520	
4738	0	32852	25524	
4739	0	33004	25520	
4740	0	33100	25526	
4741	0	33160	25517	
4742	0	33228	25520	
4743	0	33280	25514	
4744	0	33404	25516	
4745	0	33456	25519	
4746	0	33452	25517	
4747	0	33440	25517	
4748	0	33436	25525	
4749	0	33452	25516	
4750	0	33408	25524	
4751	0	33392	25525	
4752	0	33412	25525	
4753	0	33360	25518	
4754	0	33328	25515	
4755	0	33356	25521	
4756	0	33408	25514	
4757	0	33488	25521	
4758	0	33544	25512	
4759	0	33592	25509	
4760	0	33560	25524	
4761	0	33516	25514	
4762	0	33420	25516	
4763	0	33304	25523	
4764	0	33292	25519	
4765	0	33353	25514	
4766	0	33368	25512	
4767	0	33336	25518	
4768	0	33324	25515	
4769	0	33304	25516	
4770	0	33308	25508	
4771	0	33396	25517	
4772	0	33532	25515	
4773	0	33424	25526	
4774	0	33268	25519	
4775	0	33192	25512	
4776	0	33184	25516	
4777	0	33280	25512	
4778	0	33432	25519	
4779	0	33508	25513	
4780	0	33450	25519	
4781	0	33384	25516	
4782	0	33356	25510	
4783	0	33308	25516	
4784	0	33266	25511	
4785	0	33276	25510	
4786	0	33188	25510	
4787	0	33128	25521	
4788	0	33072	25523	
4789	0	33028	25522	
4790	0	33084	25517	
4791	0	33208	25506	
4792	0	33272	25519	
4793	0	33300	25508	
4794	0	33480	25516	
4795	0	33397	25520	
4796	0	33384	25516	
4797	0	33460	25519	
4798	0	33580	25515	
4799	0	33608	25516	
4800	0	33472	25510	
4801	0	33348	25511	
4802	0	33372	25504	
4803	0	33464	25512	
4804	0	33533	25510	
4805	0	33580	25515	
4806	0	33592	25508	
4807	0	33560	25524	
4808	0	33494	25519	
4809	0	33396	25517	
4810	0	33332	25517	
4811	0	33232	25518	
4812	0	33040	25521	
4813	0	32832	25516	
4814	0	32556	25527	
4815	0	32158	25522	
4816	0	31728	25518	
4817	0	31272	25526	
4818	0	30756	25524	
4819	0	30156	25528	
4820	0	29532	25532	
4821	0	29032	25526	
4822	0	28490	25532	
4823	0	27928	25544	
4824	0	27424	25536	
4825	0	27012	25546	
4826	0	26616	25543	
4827	0	26212	25549	
4828	0	25874	25545	
4829	0	25628	25537	
4830	0	25440	25562	
4831	0	25328	25557	
4832	0	25208	25564	
4833	0	25208	25559	
4834	0	25316	25569	
4835	0	25506	25556	
4836	0	25804	25565	
4837	0	26140	25556	
4838	0	26508	25552	
4839	0	27052	25558	
4840	0	27716	25550	
4841	0	28460	25550	
4842	0	29044	25554	
4843	0	29656	25549	
4844	0	30464	25540	
4845	0	31440	25538	
4846	0	32418	25542	
4847	0	33300	25533	
4848	0	34180	25540	
4849	0	35008	25522	
4850	0	35720	25532	
4851	0	36252	25517	
4852	0	36660	25524	
4853	0	36952	25516	
4854	0	37080	25526	
4855	0	37060	25523	
4856	0	36944	25530	
4857	0	36816	25513	
4858	0	36704	25520	
4859	0	36692	25514	
4860	0	36688	25524	
4861	0	36632	25523	
4862	0	36600	25517	
4863	0	36340	25512	
4864	0	36120	25521	
4865	0	36188	25518	
4866	0	36034	25526	
4867	0	35852	25511	
4868	0	35709	25521	
4869	0	35568	25521	
4870	0	35496	25505	
4871	0	35348	25519	
4872	0	35140	25506	
4873	0	34940	25511	
4874	0	34772	25513	
4875	0	34604	25519	
4876	0	34488	25517	
4877	0	34360	25509	
4878	0	34264	25517	
4879	0	34152	25515	
4880	0	34114	25518	
4881	0	34068	25516	
4882	0	34004	25514	
4883	0	33932	25510	
4884	0	33908	25517	
4885	0	33848	25508	
4886	0	33764	25516	
4887	0	33656	25513	
4888	0	33560	25509	
4889	0	33516	25511	
4890	0	33600	25509	
4891	0	33568	25512	
4892	0	33528	25508	
4893	0	33540	25508	
4894	0	33536	25516	
4895	0	33460	25509	
4896	0	33448	25519	
4897	0	33468	25514	
4898	0	33416	25511	
4899	0	33484	25514	
4900	0	33528	25508	
4901	0	33440	25512	
4902	0	33286	25510	
4903	0	33224	25513	
4904	0	33240	25508	
4905	0	33296	25517	
4906	0	33253	25508	
4907	0	33192	25518	
4908	0	33148	25509	
4909	0	33064	25514	
4910	0	33024	25523	
4911	0	33076	25518	
4912	0	33104	25517	
4913	0	33148	25512	
4914	0	33100	25508	
4915	0	33056	25518	
4916	0	33116	25504	
4917	0	33220	25514	
4918	0	33280	25518	
4919	0	33292	25504	
4920	0	33292	25514	
4921	0	33280	25511	
4922	0	33240	25511	
4923	0	33176	25512	
4924	0	33148	25500	
4925	0	33144	25519	
4926	0	33124	25515	
4927	0	33124	25519	
4928	0	33152	25517	
4929	0	33104	25519	
4930	0	33020	25509	
4931	0	33001	25516	
4932	0	33021	25519	
4933	0	33032	25512	
4934	0	33028	25513	
4935	0	33024	25508	
4936	0	33012	25518	
4937	0	33032	25513	
4938	0	33020	25516	
4939	0	33016	25508	
4940	0	33032	25504	
4941	0	33064	25515	
4942	0	33084	25504	
4943	0	33056	25519	
4944	0	33024	25516	
4945	0	32976	25502	
4946	0	32948	25512	
4947	0	32968	25513	
4948	0	32936	25521	
4949	0	32885	25517	
4950	0	32876	25508	
4951	0	32940	25516	
4952	0	32952	25515	
4953	0	32965	25511	
4954	0	32948	25516	
4955	0	32920	25515	
4956	0	32904	25508	
4957	0	32958	25513	
4958	0	33024	25513	
4959	0	32972	25516	
4960	0	32936	25512	
4961	0	32908	25516	
4962	0	32896	25508	
4963	0	32954	25503	
4964	0	32964	25513	
4965	0	32948	25512	
4966	0	32929	25508	
4967	0	32900	25513	
4968	0	32840	25513	
4969	0	32828	25521	
4970	0	32736	25512	
4971	0	32628	25512	
4972	0	32566	25517	
4973	0	32596	25525	
4974	0	32646	25519	
4975	0	32716	25511	
4976	0	32608	25513	
4977	0	32536	25509	
4978	0	32524	25518	
4979	0	32468	25509	
4980	0	32477	25509	
4981	0	32456	25517	
4982	0	32456	25516	
4983	0	32396	25510	
4984	0	32464	25515	
4985	0	32480	25517	
4986	0	32476	25500	
4987	0	32492	25510	
4988	0	32440	25516	
4989	0	32412	25505	
4990	0	32364	25513	
4991	0	32376	25514	
4992	0	32456	25511	
4993	0	32436	25512	
4994	0	32356	25523	
4995	0	32340	25508	
4996	0	32384	25510	
4997	0	32492	25516	
4998	0	32584	25508	
4999	0	32608	25523	
5000	0	32644	25505	
5001	0	32596	25521	
5002	0	32484	25516	
5003	0	32384	25517	
5004	0	32348	25515	
5005	0	32344	25518	
5006	0	32290	25514	
5007	0	32200	25519	
5008	0	32076	25514	
5009	0	31984	25517	
5010	0	31948	25512	
5011	0	31986	25521	
5012	0	32084	25512	
5013	0	32136	25516	
5014	0	32080	25513	
5015	0	32016	25517	
5016	0	32032	25516	
5017	0	32100	25517	
5018	0	32096	25510	
5019	0	32128	25517	
5020	0	32144	25509	
5021	0	32100	25514	
5022	0	32073	25516	
5023	0	32032	25509	
5024	0	32000	25508	
5025	0	32032	25516	
5026	0	32060	25510	
5027	0	32017	25517	
5028	0	31904	25519	
5029	0	31872	25516	
5030	0	31912	25518	
5031	0	31960	25514	
5032	0	31968	25527	
5033	0	31940	25521	
5034	0	31934	25527	
5035	0	31896	25516	
5036	0	31848	25520	
5037	0	31864	25520	
5038	0	31908	25517	
5039	0	31932	25519	
5040	0	31920	25519	
5041	0	31900	25522	
5042	0	31896	25516	
5043	0	31876	25517	
5044	0	31860	25526	
5045	0	31790	25519	
5046	0	31664	25522	
5047	0	31616	25524	
5048	0	31588	25521	
5049	0	31568	25520	
5050	0	31620	25516	
5051	0	31720	25521	
5052	0	31704	25527	
5053	0	31640	25521	
5054	0	31619	25520	
5055	0	31640	25522	
5056	0	31696	25521	
5057	0	31756	25518	
5058	0	31836	25522	
5059	0	31881	25518	
5060	0	31898	25530	
5061	0	31812	25525	
5062	0	31702	25514	
5063	0	31672	25519	
5064	0	31682	25523	
5065	0	31684	25514	
5066	0	31664	25520	
5067	0	31685	25518	
5068	0	31696	25518	
5069	0	31686	25525	
5070	0	31726	25522	
5071	0	31800	25524	
5072	0	31864	25524	
5073	0	31932	25530	
5074	0	31944	25530	
5075	0	31948	25517	
5076	0	31988	25525	
5077	0	31992	25519	
5078	0	31996	25524	
5079	0	32176	25519	
5080	0	32308	25524	
5081	0	32240	25524	
5082	0	32188	25518	
5083	0	32140	25521	
5084	0	32092	25517	
5085	0	32080	25524	
5086	0	32076	25520	
5087	0	32144	25523	
5088	0	32248	25519	
5089	0	32208	25518	
5090	0	32156	25521	
5091	0	32160	25522	
5092	0	32172	25521	
5093	0	32220	25521	
5094	0	32276	25519	
5095	0	32380	25528	
5096	0	32464	25523	
5097	0	32576	25527	
5098	0	32612	25525	
5099	0	32612	25527	
5100	0	32636	25519	
5101	0	32604	25527	
5102	0	32516	25524	
5103	0	32504	25522	
5104	0	32560	25512	
5105	0	32636	25516	
5106	0	32668	25517	
5107	0	32717	25520	
5108	0	32712	25519	
5109	0	32684	25524	
5110	0	32714	25522	
5111	0	32749	25520	
5112	0	32832	25520	
5113	0	32976	25523	
5114	0	33082	25522	
5115	0	33092	25521	
5116	0	33140	25516	
5117	0	33248	25523	
5118	0	33316	25516	
5119	0	33364	25516	
5120	0	33396	25514	
5121	0	33372	25518	
5122	0	33360	25519	
5123	0	33396	25519	
5124	0	33464	25516	
5125	0	33542	25517	
5126	0	33524	25511	
5127	0	33436	25519	
5128	0	33380	25508	
5129	0	33364	25519	
5130	0	33400	25504	
5131	0	33500	25519	
5132	0	33576	25511	
5133	0	33624	25506	
5134	0	33644	25519	
5135	0	33628	25512	
5136	0	33660	25516	
5137	0	33664	25519	
5138	0	33684	25509	
5139	0	33700	25509	
5140	0	33670	25513	
5141	0	33604	25503	
5142	0	33576	25509	
5143	0	33576	25508	
5144	0	33588	25512	
5145	0	33584	25511	
5146	0	33596	25505	
5147	0	33632	25505	
5148	0	33572	25510	
5149	0	33536	25503	
5150	0	33532	25508	
5151	0	33584	25506	
5152	0	33712	25505	
5153	0	33776	25512	
5154	0	33756	25509	
5155	0	33748	25514	
5156	0	33904	25512	
5157	0	34104	25501	
5158	0	34138	25514	
5159	0	34108	25511	
5160	0	33998	25512	
5161	0	33912	25508	
5162	0	33888	25496	
5163	0	33796	25513	
5164	0	33720	25500	
5165	0	33660	25509	
5166	0	33586	25508	
5167	0	33472	25498	
5168	0	33388	25510	
5169	0	33352	25509	
5170	0	33353	25501	
5171	0	33440	25508	
5172	0	33566	25504	
5173	0	33624	25510	
5174	0	33596	25503	
5175	0	33552	25510	
5176	0	33502	25510	
5177	0	33496	25510	
5178	0	33480	25505	
5179	0	33496	25508	
5180	0	33532	25500	
5181	0	33556	25508	
5182	0	33480	25503	
5183	0	33436	25506	
5184	0	33460	25504	
5185	0	33444	25509	
5186	0	33380	25508	
5187	0	33372	25508	
5188	0	33428	25504	
5189	0	33416	25510	
5190	0	33440	25508	
5191	0	33576	25510	
5192	0	33564	25507	
5193	0	33540	25507	
5194	0	33536	25511	
5195	0	33498	25503	
5196	0	33548	25502	
5197	0	33576	25512	
5198	0	33560	25504	
5199	0	33552	25510	
5200	0	33516	25503	
5201	0	33468	25507	
5202	0	33424	25506	
5203	0	33316	25502	
5204	0	33304	25500	
5205	0	33384	25504	
5206	0	33350	25509	
5207	0	33240	25503	
5208	0	33180	25508	
5209	0	33176	25501	
5210	0	33196	25511	
5211	0	33226	25508	
5212	0	33268	25503	
5213	0	33320	25504	
5214	0	33316	25504	
5215	0	33332	25514	
5216	0	33384	25506	
5217	0	33382	25513	
5218	0	33336	25501	
5219	0	33372	25498	
5220	0	33388	25510	
5221	0	33256	25502	
5222	0	33204	25504	
5223	0	33248	25503	
5224	0	33270	25502	
5225	0	33273	25502	
5226	0	33206	25501	
5227	0	33132	25508	
5228	0	33068	25503	
5229	0	33004	25505	
5230	0	33004	25497	
5231	0	33076	25509	
5232	0	33120	25502	
5233	0	33152	25510	
5234	0	33232	25505	
5235	0	33272	25508	
5236	0	33280	25500	
5237	0	33236	25496	
5238	0	33245	25502	
5239	0	33256	25495	
5240	0	33252	25500	
5241	0	33213	25494	
5242	0	33160	25507	
5243	0	33132	25502	
5244	0	33200	25496	
5245	0	33256	25504	
5246	0	33233	25505	
5247	0	33184	25503	
5248	0	33136	25507	
5249	0	33092	25500	
5250	0	33064	25508	
5251	0	33081	25495	
5252	0	33112	25504	
5253	0	33100	25504	
5254	0	33020	25508	
5255	0	32952	25507	
5256	0	32952	25495	
5257	0	33004	25500	
5258	0	33042	25498	
5259	0	33064	25505	
5260	0	33065	25506	
5261	0	33080	25493	
5262	0	33088	25502	
5263	0	33096	25498	
5264	0	33124	25496	
5265	0	33164	25498	
5266	0	33176	25503	
5267	0	33172	25501	
5268	0	33176	25494	
5269	0	33104	25503	
5270	0	33100	25497	
5271	0	33144	25503	
5272	0	33184	25500	
5273	0	33152	25504	
5274	0	33112	25507	
5275	0	33112	25495	
5276	0	33196	25503	
5277	0	33264	25507	
5278	0	33284	25502	
5279	0	33268	25502	
5280	0	33180	25492	
5281	0	33080	25501	
5282	0	33044	25497	
5283	0	32976	25495	
5284	0	32976	25498	
5285	0	32996	25501	
5286	0	32968	25498	
5287	0	32984	25493	
5288	0	32978	25503	
5289	0	32948	25498	
5290	0	32900	25493	
5291	0	32952	25496	
5292	0	33040	25497	
5293	0	33128	25500	
5294	0	33200	25497	
5295	0	33148	25503	
5296	0	33116	25493	
5297	0	33148	25500	
5298	0	33196	25501	
5299	0	33200	25498	
5300	0	33208	25495	
5301	0	33180	25504	
5302	0	33156	25495	
5303	0	33144	25501	
5304	0	33173	25500	
5305	0	33244	25495	
5306	0	33212	25500	
5307	0	33144	25491	
5308	0	33076	25490	
5309	0	33056	25497	
5310	0	33076	25492	
5311	0	33074	25486	
5312	0	33012	25498	
5313	0	32984	25498	
5314	0	33024	25497	
5315	0	33048	25505	
5316	0	33060	25495	
5317	0	33006	25496	
5318	0	32964	25489	
5319	0	32992	25501	
5320	0	33052	25488	
5321	0	33072	25500	
5322	0	33136	25495	
5323	0	33172	25492	
5324	0	33184	25493	
5325	0	33192	25486	
5326	0	33182	25492	
5327	0	33168	25498	
5328	0	33120	25494	
5329	0	33040	25496	
5330	0	33040	25485	
5331	0	33068	25496	
5332	0	33072	25491	
5333	0	33120	25494	
5334	0	33136	25491	
5335	0	33088	25497	
5336	0	33120	25489	
5337	0	33168	25499	
5338	0	33188	25492	
5339	0	33161	25492	
5340	0	33176	25493	
5341	0	33172	25487	
5342	0	33152	25497	
5343	0	33100	25487	
5344	0	33100	25496	
5345	0	33112	25492	
5346	0	33130	25484	
5347	0	33108	25501	
5348	0	33044	25490	
5349	0	32976	25494	
5350	0	32924	25498	
5351	0	32978	25484	
5352	0	33060	25494	
5353	0	33108	25492	
5354	0	33112	25488	
5355	0	33036	25498	
5356	0	32972	25490	
5357	0	32910	25491	
5358	0	32876	25492	
5359	0	32890	25492	
5360	0	32954	25492	
5361	0	32872	25485	
5362	0	32776	25495	
5363	0	32712	25492	
5364	0	32712	25491	
5365	0	32768	25498	
5366	0	32782	25492	
5367	0	32788	25494	
5368	0	32792	25492	
5369	0	32804	25495	
5370	0	32768	25495	
5371	0	32716	25493	
5372	0	32808	25489	
5373	0	32876	25501	
5374	0	32904	25495	
5375	0	32876	25497	
5376	0	32840	25503	
5377	0	32752	25503	
5378	0	32684	25496	
5379	0	32624	25492	
5380	0	32648	25493	
5381	0	32656	25496	
5382	0	32568	25494	
5383	0	32492	25493	
5384	0	32522	25494	
5385	0	32556	25497	
5386	0	32472	25494	
5387	0	32348	25496	
5388	0	32220	25490	
5389	0	32140	25490	
5390	0	32108	25494	
5391	0	32144	25491	
5392	0	32096	25496	
5393	0	32044	25497	
5394	0	32120	25488	
5395	0	32186	25492	
5396	0	32212	25495	
5397	0	32232	25494	
5398	0	32216	25492	
5399	0	32156	25494	
5400	0	32200	25495	
5401	0	32222	25486	
5402	0	32232	25495	
5403	0	32184	25486	
5404	0	32180	25489	
5405	0	32176	25499	
5406	0	32154	25488	
5407	0	32212	25494	
5408	0	32272	25496	
5409	0	32244	25503	
5410	0	32152	25498	
5411	0	32180	25492	
5412	0	32288	25501	
5413	0	32504	25495	
5414	0	32710	25488	
5415	0	32762	25503	
5416	0	32760	25489	
5417	0	32796	25497	
5418	0	32908	25495	
5419	0	33004	25485	
5420	0	32988	25489	
5421	0	32940	25483	
5422	0	32920	25485	
5423	0	32948	25479	
5424	0	33001	25487	
5425	0	33048	25481	
5426	0	33096	25484	
5427	0	33140	25479	
5428	0	33136	25487	
5429	0	33228	25486	
5430	0	33274	25493	
5431	0	33314	25487	
5432	0	33304	25495	
5433	0	33300	25485	
5434	0	33308	25489	
5435	0	33272	25487	
5436	0	33360	25495	
5437	0	33474	25481	
5438	0	33500	25489	
5439	0	33484	25477	
5440	0	33468	25489	
5441	0	33424	25488	
5442	0	33360	25484	
5443	0	33473	25487	
5444	0	33516	25481	
5445	0	33356	25487	
5446	0	33144	25479	
5447	0	33052	25492	
5448	0	33092	25495	
5449	0	33124	25484	
5450	0	33064	25494	
5451	0	33144	25482	
5452	0	33308	25491	
5453	0	33396	25484	
5454	0	33356	25492	
5455	0	33316	25479	
5456	0	33352	25489	
5457	0	33380	25476	
5458	0	33432	25483	
5459	0	33440	25479	
5460	0	33396	25493	
5461	0	33340	25485	
5462	0	33324	25476	
5463	0	33288	25478	
5464	0	33264	25478	
5465	0	33266	25481	
5466	0	33280	25486	
5467	0	33352	25481	
5468	0	33396	25479	
5469	0	33336	25484	
5470	0	33264	25482	
5471	0	33256	25481	
5472	0	33296	25484	
5473	0	33316	25490	
5474	0	33300	25491	
5475	0	33228	25489	
5476	0	33252	25484	
5477	0	33360	25485	
5478	0	33364	25490	
5479	0	33328	25479	
5480	0	33286	25484	
5481	0	33164	25479	
5482	0	33012	25479	
5483	0	33060	25479	
5484	0	33084	25485	
5485	0	33148	25489	
5486	0	33236	25476	
5487	0	33296	25485	
5488	0	33160	25479	
5489	0	32980	25487	
5490	0	33026	25479	
5491	0	33164	25487	
5492	0	33352	25484	
5493	0	33472	25492	
5494	0	33448	25478	
5495	0	33348	25487	
5496	0	33184	25484	
5497	0	33012	25494	
5498	0	32904	25493	
5499	0	32636	25489	
5500	0	32277	25490	
5501	0	31836	25488	
5502	0	31248	25492	
5503	0	30648	25506	
5504	0	30040	25498	
5505	0	29332	25500	
5506	0	28596	25504	
5507	0	27976	25502	
5508	0	27444	25508	
5509	0	26924	25508	
5510	0	26372	25511	
5511	0	25872	25513	
5512	0	25500	25525	
5513	0	25212	25520	
5514	0	25032	25525	
5515	0	24864	25530	
5516	0	24752	25533	
5517	0	24604	25524	
5518	0	24484	25529	
5519	0	24528	25523	
5520	0	24772	25524	
5521	0	25049	25514	
5522	0	25360	25521	
5523	0	25684	25521	
5524	0	26196	25513	
5525	0	26852	25504	
5526	0	27486	25516	
5527	0	28080	25512	
5528	0	28656	25516	
5529	0	29469	25509	
5530	0	30496	25508	
5531	0	31644	25508	
5532	0	32808	25503	
5533	0	33912	25493	
5534	0	34880	25499	
5535	0	35592	25482	
5536	0	36241	25492	
5537	0	36824	25484	
5538	0	37228	25486	
5539	0	37424	25482	
5540	0	37408	25498	
5541	0	37364	25484	
5542	0	37213	25472	
5543	0	37076	25497	
5544	0	36920	25477	
5545	0	36824	25494	
5546	0	36888	25495	
5547	0	36852	25471	
5548	0	36564	25487	
5549	0	36318	25474	
5550	0	36076	25490	
5551	0	35872	25477	
5552	0	35728	25486	
5553	0	35648	25486	
5554	0	35708	25489	
5555	0	35732	25485	
5556	0	35560	25497	
5557	0	35352	25491	
5558	0	35084	25479	
5559	0	34840	25485	
5560	0	34700	25476	
5561	0	34564	25486	
5562	0	34496	25478	
5563	0	34384	25487	
5564	0	34288	25479	
5565	0	34310	25486	
5566	0	34200	25484	
5567	0	33956	25495	
5568	0	33832	25484	
5569	0	33782	25490	
5570	0	33824	25492	
5571	0	33884	25489	
5572	0	33952	25485	
5573	0	33872	25479	
5574	0	33720	25484	
5575	0	33552	25484	
5576	0	33376	25482	
5577	0	33280	25479	
5578	0	33316	25483	
5579	0	33380	25485	
5580	0	33420	25485	
5581	0	33416	25466	
5582	0	33362	25484	
5583	0	33338	25478	
5584	0	33328	25489	
5585	0	33284	25479	
5586	0	33264	25487	
5587	0	33280	25482	
5588	0	33242	25487	
5589	0	33200	25485	
5590	0	33176	25489	
5591	0	33140	25486	
5592	0	33200	25490	
5593	0	33210	25484	
5594	0	33176	25495	
5595	0	33168	25485	
5596	0	33136	25490	
5597	0	33166	25476	
5598	0	33300	25482	
5599	0	33328	25485	
5600	0	33236	25485	
5601	0	33212	25485	
5602	0	33141	25476	
5603	0	33025	25490	
5604	0	32980	25478	
5605	0	32904	25487	
5606	0	32857	25476	
5607	0	32925	25487	
5608	0	32958	25479	
5609	0	32808	25491	
5610	0	32578	25492	
5611	0	32456	25479	
5612	0	32520	25486	
5613	0	32640	25482	
5614	0	32744	25487	
5615	0	32768	25485	
5616	0	32804	25484	
5617	0	32792	25493	
5618	0	32824	25492	
5619	0	32864	25486	
5620	0	32824	25479	
5621	0	32788	25486	
5622	0	32708	25477	
5623	0	32642	25484	
5624	0	32656	25479	
5625	0	32712	25484	
5626	0	32752	25485	
5627	0	32792	25486	
5628	0	32706	25490	
5629	0	32664	25480	
5630	0	32816	25494	
5631	0	32920	25487	
5632	0	32872	25484	
5633	0	32876	25492	
5634	0	32884	25488	
5635	0	32812	25486	
5636	0	32792	25490	
5637	0	32664	25486	
5638	0	32496	25491	
5639	0	32502	25488	
5640	0	32580	25484	
5641	0	32664	25487	
5642	0	32728	25485	
5643	0	32672	25489	
5644	0	32614	25484	
5645	0	32624	25484	
5646	0	32632	25486	
5647	0	32568	25478	
5648	0	32412	25493	
5649	0	32296	25489	
5650	0	32288	25484	
5651	0	32364	25495	
5652	0	32412	25493	
5653	0	32364	25496	
5654	0	32380	25485	
5655	0	32469	25484	
5656	0	32444	25489	
5657	0	32364	25481	
5658	0	32348	25484	
5659	0	32344	25485	
5660	0	32424	25494	
5661	0	32480	25482	
5662	0	32488	25491	
5663	0	32484	25490	
5664	0	32584	25495	
5665	0	32608	25487	
5666	0	32432	25487	
5667	0	32264	25488	
5668	0	32236	25484	
5669	0	32316	25492	
5670	0	32356	25492	
5671	0	32280	25494	
5672	0	32172	25487	
5673	0	32112	25495	
5674	0	32156	25487	
5675	0	32236	25479	
5676	0	32360	25492	
5677	0	32508	25486	
5678	0	32488	25496	
5679	0	32322	25498	
5680	0	32232	25494	
5681	0	32132	25482	
5682	0	32020	25490	
5683	0	32024	25486	
5684	0	32128	25495	
5685	0	32208	25484	
5686	0	32036	25489	
5687	0	31916	25493	
5688	0	31748	25492	
5689	0	31696	25490	
5690	0	31824	25495	
5691	0	32080	25487	
5692	0	32184	25490	
5693	0	32178	25495	
5694	0	32048	25495	
5695	0	31816	25492	
5696	0	31744	25497	
5697	0	31648	25493	
5698	0	31704	25487	
5699	0	31876	25487	
5700	0	31972	25492	
5701	0	31908	25488	
5702	0	31772	25492	
5703	0	31676	25490	
5704	0	31616	25485	
5705	0	31674	25487	
5706	0	31765	25487	
5707	0	31744	25493	
5708	0	31668	25491	
5709	0	31644	25493	
5710	0	31688	25493	
5711	0	31756	25489	
5712	0	31772	25500	
5713	0	31732	25490	
5714	0	31636	25504	
5715	0	31480	25488	
5716	0	31348	25497	
5717	0	31296	25495	
5718	0	31400	25493	
5719	0	31630	25492	
5720	0	31754	25489	
5721	0	31812	25500	
5722	0	31720	25493	
5723	0	31629	25490	
5724	0	31562	25492	
5725	0	31553	25494	
5726	0	31544	25495	
5727	0	31452	25490	
5728	0	31495	25490	
5729	0	31600	25492	
5730	0	31616	25499	
5731	0	31492	25498	
5732	0	31356	25492	
5733	0	31336	25499	
5734	0	31336	25502	
5735	0	31308	25495	
5736	0	31368	25502	
5737	0	31388	25498	
5738	0	31396	25500	
5739	0	31412	25495	
5740	0	31404	25500	
5741	0	31434	25492	
5742	0	31444	25497	
5743	0	31524	25492	
5744	0	31616	25503	
5745	0	31668	25490	
5746	0	31744	25494	
5747	0	31700	25498	
5748	0	31608	25496	
5749	0	31656	25494	
5750	0	31760	25500	
5751	0	31900	25490	
5752	0	31960	25500	
5753	0	31962	25500	
5754	0	31948	25500	
5755	0	31848	25498	
5756	0	31781	25493	
5757	0	31900	25496	
5758	0	32024	25499	
5759	0	32056	25500	
5760	0	32088	25497	
5761	0	31944	25502	
5762	0	31696	25493	
5763	0	31637	25497	
5764	0	31608	25498	
5765	0	31656	25495	
5766	0	31696	25500	
5767	0	31674	25488	
5768	0	31732	25497	
5769	0	31772	25492	
5770	0	31736	25494	
5771	0	31751	25492	
5772	0	31840	25499	
5773	0	31864	25501	
5774	0	31900	25501	
5775	0	31976	25493	
5776	0	32082	25501	
5777	0	32172	25500	
5778	0	32200	25498	
5779	0	32212	25494	
5780	0	32288	25473	
5781	0	32296	25493	
5782	0	32272	25496	
5783	0	32196	25494	
5784	0	32168	25489	
5785	0	32200	25494	
5786	0	32284	25492	
5787	0	32424	25500	
5788	0	32482	25490	
5789	0	32520	25500	
5790	0	32580	25496	
5791	0	32724	25463	
5792	0	32880	25495	
5793	0	32912	25490	
5794	0	32928	25497	
5795	0	32952	25489	
5796	0	32926	25496	
5797	0	32860	25492	
5798	0	32916	25500	
5799	0	32982	25489	
5800	0	33000	25489	
5801	0	33040	25498	
5802	0	33132	25487	
5803	0	33141	25494	
5804	0	33144	25485	
5805	0	33224	25492	
5806	0	33252	25488	
5807	0	33260	25491	
5808	0	33292	25493	
5809	0	33312	25498	
5810	0	33344	25495	
5811	0	33408	25482	
5812	0	33432	25500	
5813	0	33528	25487	
5814	0	33540	25494	
5815	0	33504	25493	
5816	0	33520	25488	
5817	0	33484	25494	
5818	0	33476	25496	
5819	0	33492	25495	
5820	0	33584	25500	
5821	0	33648	25487	
5822	0	33664	25490	
5823	0	33688	25485	
5824	0	33724	25494	
5825	0	33744	25482	
5826	0	33700	25494	
5827	0	33712	25489	
5828	0	33684	25488	
5829	0	33640	25468	
5830	0	33628	25491	
5831	0	33640	25489	
5832	0	33680	25490	
5833	0	33680	25482	
5834	0	33690	25493	
5835	0	33674	25496	
5836	0	33780	25488	
5837	0	33841	25488	
5838	0	33832	25495	
5839	0	33848	25482	
5840	0	33792	25489	
5841	0	33760	25494	
5842	0	33768	25490	
5843	0	33700	25488	
5844	0	33684	25484	
5845	0	33664	25484	
5846	0	33652	25495	
5847	0	33588	25495	
5848	0	33588	25484	
5849	0	33628	25482	
5850	0	33692	25482	
5851	0	33756	25484	
5852	0	33820	25481	
5853	0	33788	25490	
5854	0	33742	25493	
5855	0	33692	25492	
5856	0	33681	25484	
5857	0	33648	25485	
5858	0	33676	25494	
5859	0	33680	25484	
5860	0	33684	25484	
5861	0	33678	25492	
5862	0	33684	25489	
5863	0	33700	25492	
5864	0	33668	25477	
5865	0	33688	25486	
5866	0	33648	25487	
5867	0	33501	25487	
5868	0	33380	25489	
5869	0	33316	25480	
5870	0	33284	25490	
5871	0	33320	25478	
5872	0	33388	25486	
5873	0	33472	25484	
5874	0	33440	25487	
5875	0	33372	25484	
5876	0	33368	25492	
5877	0	33424	25484	
5878	0	33476	25484	
5879	0	33536	25484	
5880	0	33520	25492	
5881	0	33452	25487	
5882	0	33352	25488	
5883	0	33268	25480	
5884	0	33252	25488	
5885	0	33280	25484	
5886	0	33316	25493	
5887	0	33304	25484	
5888	0	33208	25493	
5889	0	33181	25481	
5890	0	33142	25487	
5891	0	33104	25478	
5892	0	33120	25488	
5893	0	33120	25484	
5894	0	33112	25493	
5895	0	33116	25489	
5896	0	33116	25495	
5897	0	33105	25487	
5898	0	33145	25490	
5899	0	33186	25484	
5900	0	33174	25492	
5901	0	33152	25490	
5902	0	33184	25492	
5903	0	33208	25487	
5904	0	33164	25491	
5905	0	33154	25493	
5906	0	33200	25484	
5907	0	33244	25485	
5908	0	33240	25494	
5909	0	33208	25489	
5910	0	33184	25479	
5911	0	33192	25492	
5912	0	33248	25484	
5913	0	33249	25482	
5914	0	33228	25480	
5915	0	33234	25492	
5916	0	33268	25487	
5917	0	33264	25487	
5918	0	33304	25483	
5919	0	33304	25493	
5920	0	33260	25490	
5921	0	33228	25487	
5922	0	33216	25485	
5923	0	33200	25478	
5924	0	33232	25485	
5925	0	33260	25471	
5926	0	33216	25490	
5927	0	33178	25476	
5928	0	33137	25481	
5929	0	33120	25479	
5930	0	33136	25487	
5931	0	33164	25479	
5932	0	33212	25488	
5933	0	33200	25484	
5934	0	33104	25487	
5935	0	33032	25493	
5936	0	33048	25496	
5937	0	33096	25494	
5938	0	33130	25487	
5939	0	33140	25479	
5940	0	33198	25488	
5941	0	33220	25479	
5942	0	33224	25495	
5943	0	33244	25481	
5944	0	33256	25486	
5945	0	33332	25490	
5946	0	33344	25492	
5947	0	33336	25488	
5948	0	33280	25480	
5949	0	33224	25487	
5950	0	33204	25478	
5951	0	33288	25493	
5952	0	33377	25488	
5953	0	33420	25485	
5954	0	33380	25490	
5955	0	33309	25484	
5956	0	33280	25490	
5957	0	33224	25481	
5958	0	33192	25487	
5959	0	33252	25477	
5960	0	33324	25488	
5961	0	33336	25477	
5962	0	33300	25491	
5963	0	33220	25482	
5964	0	33156	25484	
5965	0	33156	25484	
5966	0	33172	25477	
5967	0	33157	25486	
5968	0	33128	25479	
5969	0	33092	25492	
5970	0	33060	25479	
5971	0	33084	25479	
5972	0	33180	25486	
5973	0	33220	25479	
5974	0	33168	25490	
5975	0	33112	25478	
5976	0	33172	25487	
5977	0	33288	25484	
5978	0	33360	25486	
5979	0	33332	25479	
5980	0	33400	25487	
5981	0	33416	25478	
5982	0	33398	25479	
5983	0	33366	25478	
5984	0	33324	25479	
5985	0	33312	25476	
5986	0	33284	25481	
5987	0	33188	25476	
5988	0	33140	25480	
5989	0	33160	25479	
5990	0	33264	25486	
5991	0	33388	25479	
5992	0	33376	25484	
5993	0	33368	25485	
5994	0	33312	25490	
5995	0	33284	25482	
5996	0	33256	25487	
5997	0	33264	25478	
5998	0	33272	25484	
5999	0	33280	25479	
6000	0	33308	25489	
6001	0	33324	25486	
6002	0	33320	25477	
6003	0	33276	25481	
6004	0	33244	25479	
6005	0	33296	25484	
6006	0	33284	25477	
6007	0	33236	25488	
6008	0	33144	25478	
6009	0	33040	25491	
6010	0	32900	25484	
6011	0	32868	25482	
6012	0	32892	25478	
