# OpenSignals Text File Format. Version 1
# {"00:07:80:0F:31:9C": {"position": 0, "device": "biosignalsplux", "device name": "00:07:80:0F:31:9C", "device connection": "00:07:80:0F:31:9C", "sampling rate": 200, "resolution": [16, 16], "firmware version": 775, "comments": "", "keywords": "", "mode": 0, "sync interval": 2, "date": "2026-5-25", "time": "17:21:52.776", "channels": [1, 2], "sensor": ["EDA", "ECG"], "label": ["CH1", "CH2"], "column": ["nSeq", "DI", "CH1", "CH2"], "special": [{"SpO2": [80, 40, 5, 4, 3, 3]}, {"SpO2": [80, 40, 5, 4, 3, 3]}, {"SpO2": [80, 40, 5, 4, 3, 3]}, {"SpO2": [80, 40, 5, 4, 3, 3]}, {"SpO2": [80, 40, 5, 4, 3, 3]}, {"SpO2": [80, 40, 5, 4, 3, 3]}, {"SpO2": [80, 40, 5, 4, 3, 3]}, {"SpO2": [80, 40, 5, 4, 3, 3]}], "digital IO": [0, 1], "sleeve color": ["red", "dark_blue"], "convertedValues": 0}}
# EndOfHeader
0	0	14004	33130	
1	0	14012	33159	
2	0	14008	33358	
3	0	14008	32946	
4	0	14004	32968	
5	0	14009	33186	
6	0	14008	33048	
7	0	14001	32824	
8	0	14002	33006	
9	0	14009	33141	
10	0	14008	33239	
11	0	14000	32965	
12	0	14000	33023	
13	0	14008	33028	
14	0	14010	32972	
15	0	14000	32917	
16	0	14000	33008	
17	0	14002	33280	
18	0	14008	33222	
19	0	14000	33086	
20	0	13998	32937	
21	0	14001	33050	
22	0	14005	32928	
23	0	13998	32775	
24	0	14001	32872	
25	0	14002	33391	
26	0	14009	33053	
27	0	14002	32797	
28	0	14000	32911	
29	0	14003	32934	
30	0	14008	32931	
31	0	14004	32828	
32	0	13996	32881	
33	0	14008	33010	
34	0	14006	33020	
35	0	14000	32700	
36	0	13996	32756	
37	0	14005	33031	
38	0	14005	32860	
39	0	14002	32775	
40	0	13996	32593	
41	0	14002	32928	
42	0	14006	32684	
43	0	14002	32429	
44	0	14001	32766	
45	0	14006	32836	
46	0	14008	33004	
47	0	14002	32763	
48	0	14008	32682	
49	0	14012	32560	
50	0	14009	32496	
51	0	14004	31878	
52	0	14004	31822	
53	0	14005	32388	
54	0	14008	32338	
55	0	14004	32425	
56	0	14000	32701	
57	0	14008	33141	
58	0	14008	33105	
59	0	14005	32964	
60	0	13997	33159	
61	0	14008	33255	
62	0	14008	33141	
63	0	14002	33028	
64	0	13994	32791	
65	0	14000	33316	
66	0	14006	33062	
67	0	13996	32834	
68	0	13996	33208	
69	0	14006	33502	
70	0	14010	33844	
71	0	14004	32876	
72	0	14009	30720	
73	0	14020	28068	
74	0	14025	26577	
75	0	14018	25884	
76	0	14020	27311	
77	0	14016	29703	
78	0	14008	32609	
79	0	13996	35332	
80	0	13992	35820	
81	0	14000	35657	
82	0	14001	35072	
83	0	13996	34816	
84	0	13996	34339	
85	0	14002	33983	
86	0	14001	33620	
87	0	13998	33180	
88	0	13996	33382	
89	0	14006	33360	
90	0	14004	33260	
91	0	13996	33132	
92	0	13997	33112	
93	0	14000	33055	
94	0	14006	33116	
95	0	14000	32892	
96	0	13999	32913	
97	0	14005	33159	
98	0	14009	32965	
99	0	14000	32842	
100	0	14000	32751	
101	0	14008	32992	
102	0	14008	32812	
103	0	14004	32462	
104	0	14001	32721	
105	0	14006	32772	
106	0	14008	32676	
107	0	14002	32348	
108	0	14001	32566	
109	0	14010	32687	
110	0	14010	32390	
111	0	14004	32263	
112	0	14006	32330	
113	0	14008	32426	
114	0	14010	32178	
115	0	14004	31914	
116	0	14001	31943	
117	0	14010	32007	
118	0	14012	31834	
119	0	14004	31588	
120	0	14004	31596	
121	0	14008	31847	
122	0	14012	31601	
123	0	14008	31527	
124	0	14008	31564	
125	0	14016	31992	
126	0	14014	32007	
127	0	14006	31740	
128	0	14004	32004	
129	0	14012	32230	
130	0	14012	32173	
131	0	14008	32085	
132	0	14009	32470	
133	0	14012	32874	
134	0	14016	32828	
135	0	14005	33031	
136	0	14008	33203	
137	0	14014	33436	
138	0	14008	33468	
139	0	14008	33204	
140	0	14005	33393	
141	0	14008	33536	
142	0	14010	33670	
143	0	14006	33212	
144	0	14008	33444	
145	0	14010	33612	
146	0	14008	33455	
147	0	14006	33180	
148	0	14004	33266	
149	0	14009	33668	
150	0	14016	33437	
151	0	14006	33238	
152	0	14005	33222	
153	0	14008	33455	
154	0	14011	33372	
155	0	14004	32935	
156	0	14006	33220	
157	0	14013	33228	
158	0	14008	33100	
159	0	14002	32993	
160	0	14008	33042	
161	0	14010	33059	
162	0	14016	33016	
163	0	14008	32814	
164	0	14006	32870	
165	0	14012	32956	
166	0	14012	33114	
167	0	14009	32775	
168	0	14002	32932	
169	0	14008	33046	
170	0	14008	32974	
171	0	14004	32698	
172	0	14004	32894	
173	0	14010	33159	
174	0	14006	33100	
175	0	14004	32708	
176	0	14000	32831	
177	0	14008	33031	
178	0	14008	33009	
179	0	14000	32762	
180	0	14002	32896	
181	0	14010	33048	
182	0	14008	33121	
183	0	14008	32911	
184	0	14002	32878	
185	0	14010	33260	
186	0	14012	33014	
187	0	14004	32698	
188	0	14005	32923	
189	0	14008	32921	
190	0	14013	32994	
191	0	14006	32660	
192	0	14004	32710	
193	0	14008	32995	
194	0	14010	32966	
195	0	14004	32556	
196	0	14004	32796	
197	0	14010	32866	
198	0	14010	32855	
199	0	14000	32775	
200	0	14002	32758	
201	0	14014	32856	
202	0	14008	32820	
203	0	14004	32583	
204	0	14002	32639	
205	0	14008	32665	
206	0	14012	32548	
207	0	14008	32519	
208	0	14004	32793	
209	0	14012	32775	
210	0	14012	32767	
211	0	14008	32359	
212	0	14008	32486	
213	0	14013	32127	
214	0	14012	32020	
215	0	14010	32070	
216	0	14008	32338	
217	0	14012	32647	
218	0	14012	32775	
219	0	14004	32991	
220	0	14008	32969	
221	0	14012	33066	
222	0	14012	33125	
223	0	14002	32893	
224	0	14005	32994	
225	0	14009	33128	
226	0	14010	33056	
227	0	14004	32763	
228	0	14004	32860	
229	0	14010	33376	
230	0	14012	33207	
231	0	14008	33127	
232	0	14009	33421	
233	0	14014	32895	
234	0	14024	30193	
235	0	14020	27204	
236	0	14025	26168	
237	0	14032	25884	
238	0	14028	27461	
239	0	14016	29671	
240	0	14013	33382	
241	0	14010	35736	
242	0	14006	35524	
243	0	13998	35133	
244	0	14000	35040	
245	0	14004	34731	
246	0	14004	34101	
247	0	14000	33735	
248	0	14006	33671	
249	0	14012	33608	
250	0	14008	33148	
251	0	14008	33248	
252	0	14006	33159	
253	0	14012	33198	
254	0	14013	33031	
255	0	14009	32860	
256	0	14008	33018	
257	0	14014	32989	
258	0	14009	32928	
259	0	14000	32820	
260	0	14008	32797	
261	0	14012	33127	
262	0	14012	32929	
263	0	14005	32540	
264	0	14010	32859	
265	0	14012	32980	
266	0	14010	32852	
267	0	14008	32672	
268	0	14008	32465	
269	0	14016	32545	
270	0	14016	32487	
271	0	14010	32440	
272	0	14010	32533	
273	0	14016	32506	
274	0	14016	32406	
275	0	14011	32007	
276	0	14008	32044	
277	0	14020	32372	
278	0	14016	32177	
279	0	14016	31872	
280	0	14012	31567	
281	0	14016	31855	
282	0	14016	31799	
283	0	14012	31541	
284	0	14012	31693	
285	0	14019	31790	
286	0	14022	31784	
287	0	14012	31601	
288	0	14013	31653	
289	0	14020	32263	
290	0	14020	31985	
291	0	14014	32094	
292	0	14010	32238	
293	0	14016	32469	
294	0	14016	32593	
295	0	14014	32513	
296	0	14010	32973	
297	0	14020	33240	
298	0	14018	33237	
299	0	14010	33114	
300	0	14014	33414	
301	0	14018	33478	
302	0	14018	33378	
303	0	14010	33223	
304	0	14012	33311	
305	0	14016	33655	
306	0	14016	33479	
307	0	14012	33338	
308	0	14013	33308	
309	0	14018	33389	
310	0	14019	33373	
311	0	14012	33198	
312	0	14012	33540	
313	0	14017	33468	
314	0	14020	33247	
315	0	14012	33031	
316	0	14016	33287	
317	0	14017	33328	
318	0	14020	33298	
319	0	14012	32970	
320	0	14012	33190	
321	0	14020	33061	
322	0	14017	33055	
323	0	14012	32863	
324	0	14017	33054	
325	0	14020	33200	
326	0	14014	33084	
327	0	14014	32836	
328	0	14016	32941	
329	0	14020	33223	
330	0	14024	32908	
331	0	14012	32852	
332	0	14012	32888	
333	0	14022	33113	
334	0	14020	33099	
335	0	14010	32726	
336	0	14016	33025	
337	0	14020	32965	
338	0	14016	33055	
339	0	14012	32860	
340	0	14016	32941	
341	0	14018	33030	
342	0	14021	33040	
343	0	14010	32748	
344	0	14014	32895	
345	0	14017	32959	
346	0	14018	32908	
347	0	14008	32721	
348	0	14016	32775	
349	0	14022	33043	
350	0	14016	33057	
351	0	14012	32647	
352	0	14014	32884	
353	0	14016	32826	
354	0	14018	32869	
355	0	14008	32510	
356	0	14010	32763	
357	0	14020	32884	
358	0	14016	32775	
359	0	14011	32586	
360	0	14010	32686	
361	0	14018	32722	
362	0	14016	32664	
363	0	14014	32293	
364	0	14014	32775	
365	0	14022	32792	
366	0	14016	32652	
367	0	14010	32460	
368	0	14013	32486	
369	0	14020	32500	
370	0	14021	32764	
371	0	14013	32449	
372	0	14017	32747	
373	0	14024	32898	
374	0	14022	32515	
375	0	14014	32052	
376	0	14016	32134	
377	0	14024	32263	
378	0	14019	32661	
379	0	14012	32163	
380	0	14015	32870	
381	0	14020	33300	
382	0	14024	33196	
383	0	14012	32834	
384	0	14017	33168	
385	0	14020	33376	
386	0	14016	33283	
387	0	14014	33052	
388	0	14012	33175	
389	0	14016	33439	
390	0	14016	33271	
391	0	14012	32906	
392	0	14010	33263	
393	0	14019	33344	
394	0	14020	33783	
395	0	14016	32916	
396	0	14020	31156	
397	0	14028	28167	
398	0	14036	26468	
399	0	14028	25910	
400	0	14032	27015	
401	0	14032	29440	
402	0	14020	32785	
403	0	14008	35352	
404	0	14006	35640	
405	0	14008	35706	
406	0	14012	35303	
407	0	14004	34615	
408	0	14002	34423	
409	0	14016	33968	
410	0	14014	33496	
411	0	14009	33403	
412	0	14010	33075	
413	0	14014	33372	
414	0	14018	33202	
415	0	14008	32871	
416	0	14008	33287	
417	0	14012	33481	
418	0	14018	32972	
419	0	14008	32794	
420	0	14014	32943	
421	0	14016	33076	
422	0	14016	32876	
423	0	14008	32519	
424	0	14014	32657	
425	0	14016	32741	
426	0	14017	32728	
427	0	14008	32287	
428	0	14016	32620	
429	0	14016	32613	
430	0	14020	32489	
431	0	14012	32476	
432	0	14010	32469	
433	0	14016	32612	
434	0	14016	32471	
435	0	14008	32183	
436	0	14012	32293	
437	0	14022	32174	
438	0	14018	32167	
439	0	14012	31900	
440	0	14014	31951	
441	0	14018	31902	
442	0	14021	31719	
443	0	14014	31521	
444	0	14016	31612	
445	0	14026	31495	
446	0	14020	31495	
447	0	14014	31370	
448	0	14016	31872	
449	0	14020	31678	
450	0	14024	31780	
451	0	14016	31542	
452	0	14013	31766	
453	0	14016	32109	
454	0	14022	32221	
455	0	14018	32196	
456	0	14016	32298	
457	0	14013	32684	
458	0	14016	32726	
459	0	14013	32724	
460	0	14016	32966	
461	0	14016	33086	
462	0	14016	33494	
463	0	14013	33287	
464	0	14016	33340	
465	0	14017	33571	
466	0	14016	33376	
467	0	14008	33092	
468	0	14010	33556	
469	0	14017	33391	
470	0	14018	33469	
471	0	14008	33116	
472	0	14010	33221	
473	0	14016	33522	
474	0	14014	33344	
475	0	14008	32956	
476	0	14012	33217	
477	0	14012	33269	
478	0	14012	33157	
479	0	14012	33063	
480	0	14016	33308	
481	0	14016	33236	
482	0	14016	33095	
483	0	14008	33047	
484	0	14014	33165	
485	0	14016	32972	
486	0	14016	32861	
487	0	14010	32871	
488	0	14010	32775	
489	0	14016	32947	
490	0	14018	32918	
491	0	14004	32556	
492	0	14008	32809	
493	0	14014	32948	
494	0	14017	32752	
495	0	14006	32552	
496	0	14008	32946	
497	0	14016	32988	
498	0	14012	32964	
499	0	14008	32559	
500	0	14013	32817	
501	0	14012	32813	
502	0	14012	32893	
503	0	14008	32833	
504	0	14008	32919	
505	0	14012	32934	
506	0	14018	32775	
507	0	14008	32748	
508	0	14008	32805	
509	0	14012	32967	
510	0	14010	32730	
511	0	14006	32702	
512	0	14012	32771	
513	0	14018	33014	
514	0	14012	32807	
515	0	14008	32558	
516	0	14004	32742	
517	0	14010	32967	
518	0	14018	32727	
519	0	14008	32548	
520	0	14009	32816	
521	0	14012	32884	
522	0	14014	32700	
523	0	14008	32336	
524	0	14010	32439	
525	0	14013	32753	
526	0	14012	32883	
527	0	14010	32708	
528	0	14012	32743	
529	0	14016	32559	
530	0	14016	32346	
531	0	14008	32071	
532	0	14014	32017	
533	0	14017	32060	
534	0	14016	32232	
535	0	14008	32431	
536	0	14008	32726	
537	0	14012	33188	
538	0	14014	33159	
539	0	14006	32973	
540	0	14004	33231	
541	0	14015	33355	
542	0	14013	33047	
543	0	14004	32918	
544	0	14008	33126	
545	0	14010	33323	
546	0	14012	33031	
547	0	14006	32820	
548	0	14010	33073	
549	0	14016	33348	
550	0	14012	33618	
551	0	14008	32853	
552	0	14014	30855	
553	0	14026	27784	
554	0	14032	26016	
555	0	14026	25268	
556	0	14025	26749	
557	0	14020	29976	
558	0	14012	33344	
559	0	14002	35764	
560	0	14004	35936	
561	0	14006	35910	
562	0	14004	35548	
563	0	14004	34623	
564	0	14006	34197	
565	0	14012	34154	
566	0	14008	33583	
567	0	14005	33421	
568	0	14006	33209	
569	0	14012	33244	
570	0	14009	33423	
571	0	14008	33016	
572	0	14008	33159	
573	0	14013	33031	
574	0	14016	32933	
575	0	14006	32817	
576	0	14008	32975	
577	0	14014	33182	
578	0	14012	32810	
579	0	14008	32599	
580	0	14008	32840	
581	0	14012	32788	
582	0	14013	32873	
583	0	14009	32519	
584	0	14008	32673	
585	0	14014	32903	
586	0	14020	32734	
587	0	14008	32384	
588	0	14012	32442	
589	0	14016	32615	
590	0	14016	32510	
591	0	14011	32288	
592	0	14014	32317	
593	0	14020	32372	
594	0	14016	32164	
595	0	14010	31894	
596	0	14014	31980	
597	0	14020	31879	
598	0	14018	31885	
599	0	14012	31495	
600	0	14012	31751	
601	0	14020	31524	
602	0	14018	31735	
603	0	14010	31630	
604	0	14016	31676	
605	0	14020	31894	
606	0	14020	31872	
607	0	14012	31751	
608	0	14016	31889	
609	0	14022	32156	
610	0	14020	32376	
611	0	14009	32044	
612	0	14016	32608	
613	0	14016	33063	
614	0	14016	32933	
615	0	14013	32846	
616	0	14012	33215	
617	0	14020	33543	
618	0	14016	33514	
619	0	14012	33282	
620	0	14012	33358	
621	0	14020	33487	
622	0	14016	33374	
623	0	14012	33409	
624	0	14012	33642	
625	0	14020	33494	
626	0	14018	33407	
627	0	14010	33396	
628	0	14014	33415	
629	0	14016	33428	
630	0	14023	33561	
631	0	14016	33255	
632	0	14012	33287	
633	0	14022	33324	
634	0	14022	33254	
635	0	14012	32950	
636	0	14012	33139	
637	0	14020	33196	
638	0	14020	33026	
639	0	14016	33070	
640	0	14019	33224	
641	0	14021	33111	
642	0	14021	32909	
643	0	14012	32666	
644	0	14016	33047	
645	0	14018	33311	
646	0	14024	32995	
647	0	14012	32743	
648	0	14014	33004	
649	0	14020	33080	
650	0	14020	32936	
651	0	14012	32718	
652	0	14016	32969	
653	0	14016	33020	
654	0	14020	32956	
655	0	14013	32589	
656	0	14020	33071	
657	0	14018	33063	
658	0	14025	32948	
659	0	14016	32701	
660	0	14018	32917	
661	0	14019	33092	
662	0	14024	32897	
663	0	14011	32837	
664	0	14016	32847	
665	0	14024	33008	
666	0	14019	33124	
667	0	14016	32628	
668	0	14018	32812	
669	0	14024	32980	
670	0	14024	32801	
671	0	14017	32424	
672	0	14020	32548	
673	0	14022	32667	
674	0	14025	32948	
675	0	14020	32667	
676	0	14024	32902	
677	0	14026	32851	
678	0	14028	32633	
679	0	14020	32004	
680	0	14026	31957	
681	0	14025	32390	
682	0	14024	32444	
683	0	14020	32407	
684	0	14024	32930	
685	0	14020	33116	
686	0	14022	33260	
687	0	14016	33152	
688	0	14018	33204	
689	0	14020	33462	
690	0	14020	32856	
691	0	14013	33007	
692	0	14016	33216	
693	0	14024	33239	
694	0	14020	33204	
695	0	14016	32898	
696	0	14016	33278	
697	0	14018	33368	
698	0	14020	33634	
699	0	14017	32910	
700	0	14028	30894	
701	0	14036	28010	
702	0	14040	26135	
703	0	14034	25477	
704	0	14036	27093	
705	0	14032	29801	
706	0	14020	33253	
707	0	14012	35836	
708	0	14012	36007	
709	0	14016	35788	
710	0	14010	35335	
711	0	14009	34709	
712	0	14014	34394	
713	0	14018	34175	
714	0	14020	33744	
715	0	14013	33137	
716	0	14016	33306	
717	0	14020	33391	
718	0	14024	33118	
719	0	14012	33031	
720	0	14017	33280	
721	0	14021	33041	
722	0	14024	32977	
723	0	14016	32828	
724	0	14016	32860	
725	0	14024	33107	
726	0	14028	32894	
727	0	14017	32829	
728	0	14024	32903	
729	0	14025	32996	
730	0	14024	32708	
731	0	14020	32455	
732	0	14020	32647	
733	0	14028	32638	
734	0	14024	32732	
735	0	14024	32421	
736	0	14020	32628	
737	0	14029	32348	
738	0	14028	32361	
739	0	14024	32312	
740	0	14021	32330	
741	0	14032	32176	
742	0	14030	32054	
743	0	14024	32034	
744	0	14024	31994	
745	0	14032	31936	
746	0	14032	31562	
747	0	14024	31371	
748	0	14028	31644	
749	0	14032	31732	
750	0	14034	31576	
751	0	14026	31384	
752	0	14030	31702	
753	0	14034	31884	
754	0	14030	31830	
755	0	14028	31734	
756	0	14026	31981	
757	0	14032	32192	
758	0	14030	32308	
759	0	14024	32253	
760	0	14022	32736	
761	0	14030	32998	
762	0	14030	33159	
763	0	14021	32954	
764	0	14028	33332	
765	0	14036	33563	
766	0	14032	33407	
767	0	14026	33447	
768	0	14024	33400	
769	0	14030	33727	
770	0	14032	33484	
771	0	14024	33287	
772	0	14028	33573	
773	0	14032	33678	
774	0	14030	33511	
775	0	14020	33304	
776	0	14030	33505	
777	0	14028	33391	
778	0	14033	33476	
779	0	14028	33242	
780	0	14029	33344	
781	0	14034	33287	
782	0	14034	33412	
783	0	14028	32942	
784	0	14029	33104	
785	0	14032	33310	
786	0	14033	33129	
787	0	14020	32865	
788	0	14030	33004	
789	0	14036	32977	
790	0	14030	33019	
791	0	14024	32735	
792	0	14030	33144	
793	0	14028	33264	
794	0	14032	32892	
795	0	14020	32672	
796	0	14025	32954	
797	0	14032	33234	
798	0	14032	33007	
799	0	14026	32762	
800	0	14024	33031	
801	0	14029	33031	
802	0	14032	32991	
803	0	14024	32647	
804	0	14028	32990	
805	0	14032	32994	
806	0	14025	32991	
807	0	14026	32724	
808	0	14028	33059	
809	0	14028	33015	
810	0	14031	32942	
811	0	14020	32684	
812	0	14026	32766	
813	0	14032	32789	
814	0	14028	32815	
815	0	14024	32448	
816	0	14028	32865	
817	0	14033	33172	
818	0	14030	32796	
819	0	14030	32306	
820	0	14030	32369	
821	0	14032	32387	
822	0	14032	32036	
823	0	14024	31831	
824	0	14026	32550	
825	0	14032	32598	
826	0	14034	32868	
827	0	14024	32942	
828	0	14026	33007	
829	0	14028	33279	
830	0	14028	33346	
831	0	14020	33063	
832	0	14024	33222	
833	0	14028	33187	
834	0	14024	33365	
835	0	14017	33077	
836	0	14020	33199	
837	0	14028	33148	
838	0	14028	33397	
839	0	14021	33103	
840	0	14022	33528	
841	0	14036	33216	
842	0	14036	30855	
843	0	14036	27737	
844	0	14040	26270	
845	0	14045	25868	
846	0	14044	27314	
847	0	14028	29736	
848	0	14020	33385	
849	0	14022	36332	
850	0	14020	36285	
851	0	14010	35759	
852	0	14013	35501	
853	0	14025	35142	
854	0	14020	34362	
855	0	14016	33528	
856	0	14016	33495	
857	0	14024	33607	
858	0	14022	33534	
859	0	14016	33074	
860	0	14020	33298	
861	0	14022	33263	
862	0	14023	32951	
863	0	14016	32703	
864	0	14022	32890	
865	0	14024	32880	
866	0	14026	32958	
867	0	14020	32688	
868	0	14022	32828	
869	0	14022	32818	
870	0	14028	32658	
871	0	14020	32575	
872	0	14024	32665	
873	0	14028	32615	
874	0	14024	32709	
875	0	14020	32359	
876	0	14024	32575	
877	0	14028	32638	
878	0	14024	32444	
879	0	14020	32088	
880	0	14024	32400	
881	0	14026	32404	
882	0	14028	32094	
883	0	14024	32122	
884	0	14020	32185	
885	0	14028	31942	
886	0	14029	31859	
887	0	14024	31644	
888	0	14024	31788	
889	0	14026	31748	
890	0	14030	31636	
891	0	14024	31367	
892	0	14026	31602	
893	0	14032	31860	
894	0	14032	31730	
895	0	14025	31540	
896	0	14025	31809	
897	0	14028	31966	
898	0	14028	32086	
899	0	14024	31857	
900	0	14024	32381	
901	0	14024	32580	
902	0	14032	32593	
903	0	14024	32519	
904	0	14028	33024	
905	0	14030	33249	
906	0	14028	33145	
907	0	14024	33007	
908	0	14028	33572	
909	0	14030	33602	
910	0	14032	33524	
911	0	14020	33383	
912	0	14026	33364	
913	0	14028	33645	
914	0	14028	33518	
915	0	14024	33154	
916	0	14020	33494	
917	0	14028	33671	
918	0	14028	33244	
919	0	14024	33274	
920	0	14024	33324	
921	0	14030	33351	
922	0	14030	33154	
923	0	14021	32926	
924	0	14028	33324	
925	0	14028	33149	
926	0	14028	33269	
927	0	14026	33031	
928	0	14024	33064	
929	0	14032	32959	
930	0	14026	33074	
931	0	14024	32824	
932	0	14028	32990	
933	0	14032	33086	
934	0	14029	32897	
935	0	14024	32640	
936	0	14024	33132	
937	0	14028	33191	
938	0	14028	32924	
939	0	14021	32601	
940	0	14020	33025	
941	0	14030	33013	
942	0	14030	32927	
943	0	14021	33013	
944	0	14026	33047	
945	0	14030	33060	
946	0	14028	33108	
947	0	14018	32953	
948	0	14020	33059	
949	0	14028	33147	
950	0	14028	32912	
951	0	14020	32748	
952	0	14024	33095	
953	0	14028	32971	
954	0	14024	32796	
955	0	14020	32337	
956	0	14024	32790	
957	0	14032	32991	
958	0	14026	33084	
959	0	14024	32685	
960	0	14029	32476	
961	0	14032	32423	
962	0	14033	32120	
963	0	14020	31911	
964	0	14025	32248	
965	0	14029	32502	
966	0	14028	32632	
967	0	14017	32741	
968	0	14022	33333	
969	0	14025	33579	
970	0	14027	33442	
971	0	14016	33070	
972	0	14022	33234	
973	0	14024	33399	
974	0	14024	33292	
975	0	14016	33144	
976	0	14018	33434	
977	0	14024	33262	
978	0	14021	33336	
979	0	14012	33107	
980	0	14020	33312	
981	0	14028	33684	
982	0	14028	32517	
983	0	14028	29340	
984	0	14034	27196	
985	0	14040	26116	
986	0	14040	26141	
987	0	14028	28207	
988	0	14026	30932	
989	0	14021	34735	
990	0	14018	36567	
991	0	14008	36004	
992	0	14016	35975	
993	0	14016	35415	
994	0	14013	34535	
995	0	14016	33860	
996	0	14016	33871	
997	0	14020	33671	
998	0	14014	33287	
999	0	14018	33008	
1000	0	14017	33282	
1001	0	14028	33261	
1002	0	14022	33020	
1003	0	14016	32771	
1004	0	14018	33116	
1005	0	14022	33132	
1006	0	14022	32919	
1007	0	14018	32593	
1008	0	14020	32594	
1009	0	14024	32815	
1010	0	14024	32852	
1011	0	14016	32636	
1012	0	14020	32663	
1013	0	14021	32773	
1014	0	14024	32594	
1015	0	14020	32413	
1016	0	14020	32579	
1017	0	14024	32537	
1018	0	14024	32421	
1019	0	14016	32100	
1020	0	14024	32454	
1021	0	14026	32519	
1022	0	14026	32380	
1023	0	14016	31972	
1024	0	14021	32164	
1025	0	14026	31924	
1026	0	14026	32165	
1027	0	14018	31734	
1028	0	14022	31728	
1029	0	14028	31833	
1030	0	14028	31479	
1031	0	14020	31477	
1032	0	14026	31839	
1033	0	14028	31680	
1034	0	14026	31742	
1035	0	14024	31612	
1036	0	14021	31842	
1037	0	14028	32044	
1038	0	14026	32032	
1039	0	14020	32036	
1040	0	14024	32324	
1041	0	14032	32353	
1042	0	14024	32480	
1043	0	14020	32480	
1044	0	14022	32586	
1045	0	14026	32885	
1046	0	14028	33198	
1047	0	14017	32962	
1048	0	14021	33308	
1049	0	14024	33499	
1050	0	14026	33397	
1051	0	14018	33388	
1052	0	14021	33372	
1053	0	14026	33454	
1054	0	14022	33373	
1055	0	14018	33339	
1056	0	14020	33409	
1057	0	14024	33580	
1058	0	14024	33437	
1059	0	14014	33049	
1060	0	14020	33236	
1061	0	14030	33244	
1062	0	14024	33156	
1063	0	14022	32837	
1064	0	14022	33059	
1065	0	14024	32973	
1066	0	14026	33149	
1067	0	14018	33027	
1068	0	14020	33287	
1069	0	14025	33188	
1070	0	14022	33068	
1071	0	14017	32812	
1072	0	14021	33055	
1073	0	14024	33127	
1074	0	14021	33057	
1075	0	14016	32729	
1076	0	14018	32956	
1077	0	14024	33065	
1078	0	14021	33048	
1079	0	14014	32838	
1080	0	14020	32988	
1081	0	14022	33090	
1082	0	14021	33040	
1083	0	14016	32995	
1084	0	14018	32920	
1085	0	14024	33172	
1086	0	14020	33159	
1087	0	14016	32940	
1088	0	14015	33181	
1089	0	14020	33020	
1090	0	14018	32922	
1091	0	14013	32740	
1092	0	14016	33087	
1093	0	14022	32970	
1094	0	14017	33072	
1095	0	14012	32607	
1096	0	14018	32692	
1097	0	14019	32858	
1098	0	14024	32818	
1099	0	14012	32903	
1100	0	14022	33223	
1101	0	14025	32799	
1102	0	14021	32378	
1103	0	14016	32209	
1104	0	14017	32102	
1105	0	14024	32221	
1106	0	14024	32309	
1107	0	14016	32166	
1108	0	14016	32748	
1109	0	14020	33188	
1110	0	14018	33279	
1111	0	14012	33108	
1112	0	14016	33329	
1113	0	14021	33468	
1114	0	14017	33287	
1115	0	14012	33103	
1116	0	14012	33519	
1117	0	14016	33425	
1118	0	14016	33215	
1119	0	14010	33052	
1120	0	14016	33248	
1121	0	14020	33360	
1122	0	14020	33407	
1123	0	14014	33468	
1124	0	14017	32615	
1125	0	14032	29748	
1126	0	14032	27347	
1127	0	14034	26095	
1128	0	14032	26464	
1129	0	14036	29086	
1130	0	14025	31031	
1131	0	14012	34252	
1132	0	14010	36388	
1133	0	14012	36322	
1134	0	14008	35719	
1135	0	14006	35100	
1136	0	14008	34858	
1137	0	14012	34457	
1138	0	14010	33737	
1139	0	14008	33356	
1140	0	14010	33269	
1141	0	14016	33405	
1142	0	14016	33150	
1143	0	14008	32873	
1144	0	14010	33112	
1145	0	14017	33065	
1146	0	14016	33007	
1147	0	14013	32775	
1148	0	14012	32730	
1149	0	14020	32977	
1150	0	14017	32856	
1151	0	14008	32615	
1152	0	14010	32865	
1153	0	14020	32931	
1154	0	14016	32705	
1155	0	14010	32388	
1156	0	14009	32621	
1157	0	14018	32607	
1158	0	14017	32405	
1159	0	14008	32244	
1160	0	14016	32616	
1161	0	14018	32626	
1162	0	14010	32438	
1163	0	14008	32249	
1164	0	14016	32084	
1165	0	14017	32190	
1166	0	14020	32124	
1167	0	14009	31965	
1168	0	14012	31958	
1169	0	14016	31897	
1170	0	14020	31748	
1171	0	14012	31385	
1172	0	14014	31736	
1173	0	14020	31676	
1174	0	14020	31524	
1175	0	14013	31483	
1176	0	14016	31537	
1177	0	14024	31842	
1178	0	14020	31904	
1179	0	14012	31640	
1180	0	14016	31987	
1181	0	14020	32040	
1182	0	14020	32230	
1183	0	14008	32291	
1184	0	14012	32591	
1185	0	14016	32996	
1186	0	14012	32955	
1187	0	14012	32876	
1188	0	14012	33260	
1189	0	14018	33456	
1190	0	14017	33415	
1191	0	14008	33287	
1192	0	14014	33540	
1193	0	14015	33695	
1194	0	14016	33591	
1195	0	14008	33552	
1196	0	14012	33724	
1197	0	14018	33700	
1198	0	14016	33553	
1199	0	14012	33449	
1200	0	14016	33402	
1201	0	14020	33444	
1202	0	14017	33257	
1203	0	14008	33103	
1204	0	14011	33191	
1205	0	14020	33428	
1206	0	14020	33278	
1207	0	14009	32912	
1208	0	14010	33137	
1209	0	14020	33301	
1210	0	14018	32996	
1211	0	14012	32926	
1212	0	14016	33031	
1213	0	14018	33217	
1214	0	14017	33086	
1215	0	14008	32814	
1216	0	14012	32993	
1217	0	14012	33103	
1218	0	14016	32912	
1219	0	14007	32865	
1220	0	14016	33188	
1221	0	14017	33203	
1222	0	14017	33054	
1223	0	14010	32661	
1224	0	14012	33145	
1225	0	14017	33083	
1226	0	14013	32889	
1227	0	14010	32917	
1228	0	14012	33041	
1229	0	14010	32985	
1230	0	14012	33020	
1231	0	14006	32703	
1232	0	14012	32794	
1233	0	14016	32927	
1234	0	14016	32936	
1235	0	14004	32669	
1236	0	14009	32773	
1237	0	14016	32991	
1238	0	14016	32995	
1239	0	14008	32775	
1240	0	14013	32886	
1241	0	14017	32608	
1242	0	14016	32575	
1243	0	14008	32271	
1244	0	14012	33031	
1245	0	14018	33069	
1246	0	14017	32609	
1247	0	14016	32231	
1248	0	14017	32262	
1249	0	14024	32229	
1250	0	14017	31944	
1251	0	14014	31898	
1252	0	14016	32304	
1253	0	14020	32714	
1254	0	14016	32978	
1255	0	14008	33017	
1256	0	14012	33189	
1257	0	14016	33357	
1258	0	14010	33430	
1259	0	14004	33030	
1260	0	14008	33314	
1261	0	14018	33296	
1262	0	14012	33120	
1263	0	14010	32900	
1264	0	14012	33042	
1265	0	14012	33186	
1266	0	14010	33303	
1267	0	14008	33040	
1268	0	14012	33613	
1269	0	14017	32610	
1270	0	14018	29718	
1271	0	14020	26729	
1272	0	14024	25773	
1273	0	14033	25913	
1274	0	14026	28026	
1275	0	14012	30727	
1276	0	14008	34567	
1277	0	14008	36540	
1278	0	14005	36201	
1279	0	13998	35676	
1280	0	14000	35255	
1281	0	14009	34845	
1282	0	14006	34140	
1283	0	14001	33512	
1284	0	14008	33559	
1285	0	14008	33616	
1286	0	14008	33252	
1287	0	14006	33031	
1288	0	14008	33240	
1289	0	14008	33246	
1290	0	14009	33021	
1291	0	14004	32830	
1292	0	14006	32997	
1293	0	14016	33022	
1294	0	14008	32840	
1295	0	14004	32839	
1296	0	14004	32798	
1297	0	14010	32788	
1298	0	14012	32653	
1299	0	14004	32519	
1300	0	14010	32620	
1301	0	14014	32726	
1302	0	14008	32688	
1303	0	14004	32551	
1304	0	14006	32569	
1305	0	14012	32516	
1306	0	14006	32396	
1307	0	14004	32250	
1308	0	14008	32389	
1309	0	14010	32581	
1310	0	14012	32300	
1311	0	14008	31925	
1312	0	14010	32162	
1313	0	14016	32027	
1314	0	14012	31918	
1315	0	14004	31594	
1316	0	14012	31682	
1317	0	14017	31708	
1318	0	14012	31509	
1319	0	14004	31494	
1320	0	14011	31680	
1321	0	14012	31874	
1322	0	14010	31791	
1323	0	14006	31815	
1324	0	14004	31992	
1325	0	14014	32090	
1326	0	14012	32069	
1327	0	14001	31991	
1328	0	14008	32550	
1329	0	14012	32566	
1330	0	14009	32740	
1331	0	14004	32838	
1332	0	14009	33132	
1333	0	14010	33184	
1334	0	14009	33103	
1335	0	14004	33140	
1336	0	14010	33508	
1337	0	14008	33331	
1338	0	14008	33556	
1339	0	14008	33260	
1340	0	14009	33317	
1341	0	14012	33520	
1342	0	14012	33543	
1343	0	14001	33165	
1344	0	14008	33207	
1345	0	14016	33529	
1346	0	14012	33309	
1347	0	14000	33023	
1348	0	14010	33148	
1349	0	14012	33363	
1350	0	14008	33250	
1351	0	14000	32921	
1352	0	14008	33281	
1353	0	14012	33181	
1354	0	14010	33228	
1355	0	14004	32921	
1356	0	14008	33092	
1357	0	14008	33357	
1358	0	14008	33197	
1359	0	14000	32924	
1360	0	14006	33015	
1361	0	14012	33052	
1362	0	14008	32854	
1363	0	14004	32729	
1364	0	14008	33141	
1365	0	14010	33200	
1366	0	14010	33050	
1367	0	14002	32733	
1368	0	14004	33017	
1369	0	14008	33011	
1370	0	14010	32944	
1371	0	14000	32967	
1372	0	14006	33045	
1373	0	14006	33204	
1374	0	14004	32860	
1375	0	14002	32966	
1376	0	14004	32940	
1377	0	14004	33026	
1378	0	14008	33044	
1379	0	14000	32633	
1380	0	14006	32903	
1381	0	14005	33149	
1382	0	14002	32921	
1383	0	14000	32900	
1384	0	14001	32912	
1385	0	14008	32924	
1386	0	14004	32594	
1387	0	14000	32564	
1388	0	14005	32643	
1389	0	14010	32772	
1390	0	14006	32927	
1391	0	14000	32724	
1392	0	14004	32647	
1393	0	14014	32519	
1394	0	14007	32328	
1395	0	14001	31879	
1396	0	14008	31943	
1397	0	14012	32244	
1398	0	14006	32383	
1399	0	13996	32519	
1400	0	14002	33125	
1401	0	14004	33287	
1402	0	14002	33260	
1403	0	14000	32987	
1404	0	14000	33373	
1405	0	14006	33393	
1406	0	14004	33328	
1407	0	13996	33106	
1408	0	13998	32991	
1409	0	14006	33264	
1410	0	14002	33280	
1411	0	13996	33018	
1412	0	13998	33092	
1413	0	14009	33370	
1414	0	14010	33688	
1415	0	14002	31978	
1416	0	14012	29172	
1417	0	14020	26869	
1418	0	14020	25930	
1419	0	14012	26073	
1420	0	14012	28717	
1421	0	14009	31924	
1422	0	13997	35023	
1423	0	13992	36231	
1424	0	13992	36012	
1425	0	14001	35685	
1426	0	13998	35232	
1427	0	13992	34430	
1428	0	13996	34157	
1429	0	14000	33844	
1430	0	14000	33329	
1431	0	13988	33182	
1432	0	13996	33328	
1433	0	14000	33145	
1434	0	14001	33195	
1435	0	13992	32880	
1436	0	13994	33078	
1437	0	14003	33006	
1438	0	14000	32749	
1439	0	13996	32643	
1440	0	13998	32942	
1441	0	14000	32918	
1442	0	14001	32769	
1443	0	13996	32476	
1444	0	13996	32791	
1445	0	14002	32807	
1446	0	14002	32489	
1447	0	13996	32465	
1448	0	14000	32551	
1449	0	14000	32542	
1450	0	14000	32391	
1451	0	13996	32007	
1452	0	13994	32540	
1453	0	14000	32750	
1454	0	14004	32230	
1455	0	13994	31972	
1456	0	13996	32222	
1457	0	14004	32258	
1458	0	14004	32085	
1459	0	13992	31713	
1460	0	13998	31930	
1461	0	14000	31991	
1462	0	14001	31644	
1463	0	13992	31303	
1464	0	14000	31706	
1465	0	13998	31796	
1466	0	13997	31845	
1467	0	13994	31655	
1468	0	13996	31698	
1469	0	14000	31750	
1470	0	14000	32098	
1471	0	13988	31874	
1472	0	13996	32292	
1473	0	14001	32279	
1474	0	14000	32516	
1475	0	13994	32350	
1476	0	13998	32682	
1477	0	13996	33084	
1478	0	14000	33060	
1479	0	13992	32903	
1480	0	13997	33424	
1481	0	14000	33527	
1482	0	13996	33390	
1483	0	13992	33287	
1484	0	13994	33559	
1485	0	13998	33480	
1486	0	13994	33597	
1487	0	13992	33326	
1488	0	13993	33428	
1489	0	13997	33482	
1490	0	13996	33357	
1491	0	13990	33252	
1492	0	13996	33446	
1493	0	14000	33304	
1494	0	14000	33210	
1495	0	13993	33006	
1496	0	13997	33365	
1497	0	14000	33296	
1498	0	13996	33177	
1499	0	13988	32977	
1500	0	13994	33237	
1501	0	14000	33092	
1502	0	13998	32956	
1503	0	13992	32716	
1504	0	13992	33047	
1505	0	13996	32870	
1506	0	13996	33018	
1507	0	13992	32656	
1508	0	13994	33069	
1509	0	13996	33260	
1510	0	13992	33022	
1511	0	13984	32738	
1512	0	13996	32914	
1513	0	14000	33031	
1514	0	13989	32887	
1515	0	13992	32820	
1516	0	13986	32791	
1517	0	13994	32725	
1518	0	13993	33134	
1519	0	13986	32984	
1520	0	13989	32958	
1521	0	13992	33164	
1522	0	13993	32775	
1523	0	13986	32647	
1524	0	13990	32967	
1525	0	13996	33076	
1526	0	13993	32876	
1527	0	13986	32571	
1528	0	13992	33003	
1529	0	13994	32903	
1530	0	13988	32928	
1531	0	13988	32556	
1532	0	13988	32698	
1533	0	13990	32702	
1534	0	13997	32509	
1535	0	13990	32705	
1536	0	13992	33008	
1537	0	13997	32975	
1538	0	13994	32540	
1539	0	13990	32302	
1540	0	13988	32159	
1541	0	13994	32176	
1542	0	13994	32284	
1543	0	13990	32226	
1544	0	13989	32599	
1545	0	13992	32841	
1546	0	13990	33038	
1547	0	13986	33081	
1548	0	13986	33223	
1549	0	13988	33380	
1550	0	13986	33240	
1551	0	13980	33041	
1552	0	13986	33152	
1553	0	13989	33278	
1554	0	13990	33230	
1555	0	13978	32812	
1556	0	13984	33103	
1557	0	13992	33359	
1558	0	13988	33287	
1559	0	13985	33487	
1560	0	13992	32832	
1561	0	14000	30671	
1562	0	13998	27470	
1563	0	13998	25895	
1564	0	14004	26152	
1565	0	14005	28100	
1566	0	13996	30133	
1567	0	13981	33582	
1568	0	13980	36088	
1569	0	13982	36322	
1570	0	13980	35872	
1571	0	13974	35188	
1572	0	13977	34933	
1573	0	13988	34424	
1574	0	13986	33812	
1575	0	13978	33348	
1576	0	13982	33389	
1577	0	13985	33370	
1578	0	13986	33300	
1579	0	13980	32862	
1580	0	13980	32991	
1581	0	13986	33103	
1582	0	13984	32923	
1583	0	13978	32630	
1584	0	13982	32909	
1585	0	13986	32972	
1586	0	13992	32873	
1587	0	13980	32553	
1588	0	13982	32588	
1589	0	13989	32636	
1590	0	13985	32665	
1591	0	13980	32455	
1592	0	13984	32575	
1593	0	13987	32793	
1594	0	13984	32505	
1595	0	13980	32202	
1596	0	13981	32508	
1597	0	13984	32508	
1598	0	13985	32519	
1599	0	13980	32188	
1600	0	13984	32292	
1601	0	13988	32309	
1602	0	13988	32188	
1603	0	13980	31773	
1604	0	13980	31955	
1605	0	13989	31879	
1606	0	13984	31839	
1607	0	13982	31604	
1608	0	13986	31708	
1609	0	13990	31852	
1610	0	13988	31590	
1611	0	13984	31679	
1612	0	13984	31623	
1613	0	13988	31861	
1614	0	13988	31916	
1615	0	13984	31544	
1616	0	13984	31963	
1617	0	13992	32196	
1618	0	13982	32199	
1619	0	13978	32134	
1620	0	13984	32442	
1621	0	13986	32611	
1622	0	13984	32724	
1623	0	13980	32912	
1624	0	13981	33202	
1625	0	13987	33284	
1626	0	13988	33294	
1627	0	13980	33133	
1628	0	13984	33469	
1629	0	13984	33431	
1630	0	13982	33319	
1631	0	13978	33279	
1632	0	13981	33420	
1633	0	13984	33507	
1634	0	13985	33386	
1635	0	13982	33188	
1636	0	13982	33148	
1637	0	13987	33339	
1638	0	13982	33220	
1639	0	13980	33177	
1640	0	13981	33369	
1641	0	13986	33317	
1642	0	13980	33051	
1643	0	13980	33042	
1644	0	13982	33077	
1645	0	13984	33217	
1646	0	13983	32929	
1647	0	13978	32867	
1648	0	13984	33194	
1649	0	13988	33020	
1650	0	13984	32857	
1651	0	13978	32916	
1652	0	13980	33092	
1653	0	13988	32922	
1654	0	13984	33031	
1655	0	13974	32730	
1656	0	13981	32985	
1657	0	13984	33129	
1658	0	13984	32877	
1659	0	13976	32679	
1660	0	13980	32913	
1661	0	13984	33007	
1662	0	13984	33025	
1663	0	13976	32860	
1664	0	13976	33077	
1665	0	13977	33012	
1666	0	13980	32852	
1667	0	13976	32764	
1668	0	13977	32928	
1669	0	13976	33058	
1670	0	13980	32876	
1671	0	13972	32833	
1672	0	13976	32926	
1673	0	13978	32868	
1674	0	13978	32758	
1675	0	13970	32425	
1676	0	13980	32544	
1677	0	13982	32640	
1678	0	13981	32894	
1679	0	13976	32553	
1680	0	13980	32775	
1681	0	13986	32519	
1682	0	13984	32247	
1683	0	13976	32208	
1684	0	13976	32028	
1685	0	13980	32221	
1686	0	13984	32367	
1687	0	13972	32254	
1688	0	13976	32804	
1689	0	13980	33076	
1690	0	13976	33256	
1691	0	13969	32900	
1692	0	13978	33136	
1693	0	13981	33026	
1694	0	13976	33159	
1695	0	13970	32861	
1696	0	13973	33253	
1697	0	13978	33323	
1698	0	13974	33056	
1699	0	13968	32879	
1700	0	13972	33172	
1701	0	13972	33345	
1702	0	13976	33532	
1703	0	13976	32924	
1704	0	13984	30983	
1705	0	13988	28160	
1706	0	13990	26558	
1707	0	13988	26191	
1708	0	13988	28218	
1709	0	13989	30272	
1710	0	13978	32738	
1711	0	13966	35421	
1712	0	13964	35923	
1713	0	13968	35692	
1714	0	13968	35271	
1715	0	13965	34709	
1716	0	13965	34567	
1717	0	13972	34142	
1718	0	13968	33703	
1719	0	13969	33182	
1720	0	13969	33458	
1721	0	13971	33275	
1722	0	13974	33044	
1723	0	13968	32980	
1724	0	13972	33242	
1725	0	13976	32978	
1726	0	13976	33041	
1727	0	13964	32509	
1728	0	13968	33050	
1729	0	13972	32914	
1730	0	13974	32775	
1731	0	13962	32285	
1732	0	13966	32751	
1733	0	13972	32959	
1734	0	13973	32798	
1735	0	13971	32449	
1736	0	13968	32609	
1737	0	13976	32569	
1738	0	13972	32533	
1739	0	13968	32212	
1740	0	13969	32499	
1741	0	13974	32401	
1742	0	13970	32349	
1743	0	13964	32029	
1744	0	13970	32122	
1745	0	13972	32391	
1746	0	13973	31886	
1747	0	13964	31748	
1748	0	13972	31683	
1749	0	13976	31716	
1750	0	13976	31663	
1751	0	13964	31472	
1752	0	13972	31799	
1753	0	13976	31521	
1754	0	13972	31544	
1755	0	13969	31536	
1756	0	13968	31847	
1757	0	13974	31893	
1758	0	13980	31720	
1759	0	13966	31554	
1760	0	13972	32200	
1761	0	13974	32288	
1762	0	13972	32142	
1763	0	13963	32319	
1764	0	13968	32701	
1765	0	13976	32931	
1766	0	13969	32900	
1767	0	13965	32752	
1768	0	13969	33327	
1769	0	13973	33476	
1770	0	13972	33365	
1771	0	13960	33338	
1772	0	13970	33599	
1773	0	13972	33361	
1774	0	13970	33543	
1775	0	13962	33400	
1776	0	13966	33580	
1777	0	13971	33455	
1778	0	13972	33394	
1779	0	13964	33172	
1780	0	13968	33446	
1781	0	13969	33424	
1782	0	13968	33577	
1783	0	13962	32982	
1784	0	13969	33369	
1785	0	13970	33439	
1786	0	13973	33066	
1787	0	13966	32949	
1788	0	13968	33268	
1789	0	13968	33330	
1790	0	13969	33100	
1791	0	13960	32951	
1792	0	13966	33000	
1793	0	13972	33008	
1794	0	13972	33139	
1795	0	13964	32671	
1796	0	13968	33181	
1797	0	13970	33080	
1798	0	13972	33031	
1799	0	13960	32956	
1800	0	13968	33120	
1801	0	13970	33262	
1802	0	13970	33133	
1803	0	13964	32775	
1804	0	13965	33119	
1805	0	13974	33031	
1806	0	13966	33029	
1807	0	13964	32942	
1808	0	13964	33029	
1809	0	13968	33137	
1810	0	13966	33045	
1811	0	13962	32771	
1812	0	13962	32892	
1813	0	13969	33164	
1814	0	13970	32894	
1815	0	13962	32679	
1816	0	13968	32890	
1817	0	13970	33016	
1818	0	13972	33114	
1819	0	13962	32742	
1820	0	13968	32865	
1821	0	13976	32571	
1822	0	13970	32419	
1823	0	13961	31983	
1824	0	13970	32212	
1825	0	13969	32285	
1826	0	13968	32512	
1827	0	13962	32575	
1828	0	13964	33022	
1829	0	13968	33543	
1830	0	13968	33255	
1831	0	13962	33134	
1832	0	13962	33358	
1833	0	13966	33340	
1834	0	13960	33382	
1835	0	13963	33052	
1836	0	13960	33208	
1837	0	13964	33414	
1838	0	13964	33475	
1839	0	13958	33007	
1840	0	13956	33349	
1841	0	13968	33614	
1842	0	13971	33700	
1843	0	13964	32666	
1844	0	13976	30097	
1845	0	13981	27755	
1846	0	13980	26607	
1847	0	13976	26574	
1848	0	13976	29390	
1849	0	13976	31558	
1850	0	13964	33982	
1851	0	13956	36054	
1852	0	13956	36053	
1853	0	13962	35735	
1854	0	13956	35101	
1855	0	13952	34756	
1856	0	13956	34311	
1857	0	13964	33975	
1858	0	13960	33513	
1859	0	13952	33203	
1860	0	13960	33490	
1861	0	13964	33316	
1862	0	13962	33199	
1863	0	13956	32768	
1864	0	13960	33010	
1865	0	13966	33229	
1866	0	13964	33040	
1867	0	13957	32692	
1868	0	13964	32927	
1869	0	13968	33039	
1870	0	13965	32900	
1871	0	13956	32677	
1872	0	13962	32692	
1873	0	13964	32900	
1874	0	13964	32647	
1875	0	13962	32558	
1876	0	13961	32704	
1877	0	13964	32809	
1878	0	13967	32535	
1879	0	13956	32212	
1880	0	13964	32538	
1881	0	13968	32533	
1882	0	13972	32472	
1883	0	13960	32058	
1884	0	13963	32175	
1885	0	13966	32164	
1886	0	13968	31916	
1887	0	13960	31564	
1888	0	13964	32004	
1889	0	13968	31820	
1890	0	13966	31590	
1891	0	13964	31466	
1892	0	13962	31470	
1893	0	13972	31727	
1894	0	13972	31684	
1895	0	13962	31448	
1896	0	13964	31764	
1897	0	13968	31873	
1898	0	13968	31831	
1899	0	13962	31684	
1900	0	13964	32126	
1901	0	13966	32297	
1902	0	13968	32454	
1903	0	13962	32391	
1904	0	13965	32826	
1905	0	13966	32973	
1906	0	13962	33182	
1907	0	13962	33164	
1908	0	13964	33480	
1909	0	13968	33512	
1910	0	13969	33539	
1911	0	13964	33488	
1912	0	13962	33700	
1913	0	13967	33694	
1914	0	13968	33644	
1915	0	13962	33381	
1916	0	13966	33817	
1917	0	13970	33739	
1918	0	13968	33599	
1919	0	13964	33467	
1920	0	13964	33457	
1921	0	13970	33714	
1922	0	13968	33468	
1923	0	13962	33183	
1924	0	13962	33405	
1925	0	13968	33399	
1926	0	13971	33402	
1927	0	13962	33147	
1928	0	13968	33248	
1929	0	13970	33262	
1930	0	13966	32944	
1931	0	13964	32926	
1932	0	13964	33056	
1933	0	13973	33260	
1934	0	13968	33094	
1935	0	13962	32919	
1936	0	13965	33071	
1937	0	13968	33210	
1938	0	13968	32833	
1939	0	13964	32632	
1940	0	13964	33091	
1941	0	13966	33287	
1942	0	13968	33116	
1943	0	13962	32869	
1944	0	13964	32912	
1945	0	13967	33090	
1946	0	13964	32972	
1947	0	13962	32814	
1948	0	13964	33046	
1949	0	13969	33153	
1950	0	13968	33012	
1951	0	13958	32628	
1952	0	13960	33056	
1953	0	13965	32883	
1954	0	13964	33009	
1955	0	13958	32748	
1956	0	13964	32927	
1957	0	13969	33132	
1958	0	13964	32966	
1959	0	13958	32545	
1960	0	13960	32848	
1961	0	13966	32901	
1962	0	13964	32572	
1963	0	13960	32346	
1964	0	13960	32924	
1965	0	13964	33028	
1966	0	13966	32956	
1967	0	13960	32404	
1968	0	13962	32340	
1969	0	13971	32180	
1970	0	13968	32163	
1971	0	13961	32004	
1972	0	13964	32444	
1973	0	13968	32517	
1974	0	13964	32736	
1975	0	13953	32898	
1976	0	13961	33148	
1977	0	13964	33173	
1978	0	13960	33189	
1979	0	13953	32996	
1980	0	13958	33152	
1981	0	13958	33284	
1982	0	13961	33148	
1983	0	13955	32892	
1984	0	13956	33198	
1985	0	13960	33287	
1986	0	13960	33255	
1987	0	13956	33042	
1988	0	13958	33543	
1989	0	13970	33152	
1990	0	13968	31254	
1991	0	13966	27965	
1992	0	13976	26185	
1993	0	13984	25425	
1994	0	13976	26028	
1995	0	13969	28636	
1996	0	13960	32263	
1997	0	13960	35532	
1998	0	13952	35684	
1999	0	13946	35535	
2000	0	13949	35300	
2001	0	13956	34823	
2002	0	13956	34336	
2003	0	13948	33733	
2004	0	13952	33799	
2005	0	13958	33464	
2006	0	13956	33169	
2007	0	13952	33087	
2008	0	13956	33118	
2009	0	13956	33287	
2010	0	13961	33022	
2011	0	13956	32726	
2012	0	13957	33154	
2013	0	13962	33120	
2014	0	13960	32900	
2015	0	13953	32510	
2016	0	13959	32896	
2017	0	13960	32934	
2018	0	13964	32955	
2019	0	13949	32710	
2020	0	13957	32688	
2021	0	13961	32823	
2022	0	13962	32774	
2023	0	13956	32486	
2024	0	13958	32654	
2025	0	13962	32746	
2026	0	13961	32424	
2027	0	13956	32302	
2028	0	13958	32615	
2029	0	13964	32436	
2030	0	13962	32245	
2031	0	13960	32252	
2032	0	13956	32280	
2033	0	13964	32344	
2034	0	13962	32095	
2035	0	13956	31725	
2036	0	13961	31844	
2037	0	13964	31961	
2038	0	13965	31844	
2039	0	13956	31546	
2040	0	13960	31751	
2041	0	13968	31879	
2042	0	13964	31732	
2043	0	13958	31514	
2044	0	13960	31863	
2045	0	13966	32047	
2046	0	13961	32180	
2047	0	13956	31980	
2048	0	13960	32564	
2049	0	13960	32626	
2050	0	13962	32603	
2051	0	13957	32441	
2052	0	13957	33087	
2053	0	13960	33159	
2054	0	13960	33223	
2055	0	13956	33136	
2056	0	13958	33452	
2057	0	13960	33506	
2058	0	13961	33561	
2059	0	13952	33237	
2060	0	13961	33370	
2061	0	13962	33444	
2062	0	13957	33493	
2063	0	13956	33031	
2064	0	13961	33152	
2065	0	13960	33492	
2066	0	13964	33340	
2067	0	13954	33199	
2068	0	13956	33389	
2069	0	13964	33210	
2070	0	13962	33148	
2071	0	13952	32941	
2072	0	13960	33175	
2073	0	13968	33128	
2074	0	13960	32933	
2075	0	13957	32809	
2076	0	13958	33082	
2077	0	13960	33175	
2078	0	13964	33134	
2079	0	13954	32860	
2080	0	13956	32938	
2081	0	13964	33071	
2082	0	13960	32775	
2083	0	13956	32788	
2084	0	13952	33091	
2085	0	13960	33031	
2086	0	13964	32900	
2087	0	13953	32676	
2088	0	13956	32948	
2089	0	13964	32910	
2090	0	13960	32937	
2091	0	13952	32615	
2092	0	13956	32992	
2093	0	13958	32828	
2094	0	13957	32789	
2095	0	13956	32740	
2096	0	13956	32967	
2097	0	13964	33052	
2098	0	13956	32756	
2099	0	13952	32772	
2100	0	13957	32785	
2101	0	13958	32928	
2102	0	13960	32810	
2103	0	13948	32759	
2104	0	13956	32841	
2105	0	13960	32768	
2106	0	13960	32766	
2107	0	13953	32390	
2108	0	13955	32654	
2109	0	13962	32540	
2110	0	13961	32639	
2111	0	13952	32579	
2112	0	13960	32860	
2113	0	13962	32684	
2114	0	13966	32349	
2115	0	13956	32099	
2116	0	13954	32058	
2117	0	13962	32033	
2118	0	13960	32374	
2119	0	13955	32216	
2120	0	13956	32752	
2121	0	13956	33285	
2122	0	13956	33252	
2123	0	13952	32749	
2124	0	13954	33239	
2125	0	13956	33237	
2126	0	13960	33085	
2127	0	13952	32888	
2128	0	13956	33175	
2129	0	13960	33348	
2130	0	13956	33170	
2131	0	13948	32931	
2132	0	13952	33304	
2133	0	13961	33329	
2134	0	13956	33328	
2135	0	13954	33031	
2136	0	13957	32119	
2137	0	13968	29343	
2138	0	13972	26678	
2139	0	13968	25615	
2140	0	13972	26024	
2141	0	13976	28364	
2142	0	13960	31332	
2143	0	13944	34502	
2144	0	13944	35952	
2145	0	13948	35837	
2146	0	13944	35591	
2147	0	13942	35017	
2148	0	13945	34596	
2149	0	13952	34083	
2150	0	13952	33656	
2151	0	13948	33220	
2152	0	13948	33287	
2153	0	13956	33404	
2154	0	13950	33209	
2155	0	13948	32966	
2156	0	13952	33273	
2157	0	13952	33171	
2158	0	13953	32917	
2159	0	13949	32637	
2160	0	13953	32836	
2161	0	13956	32839	
2162	0	13952	32844	
2163	0	13947	32583	
2164	0	13949	32712	
2165	0	13954	32785	
2166	0	13952	32855	
2167	0	13948	32714	
2168	0	13952	32552	
2169	0	13954	32764	
2170	0	13954	32759	
2171	0	13949	32252	
2172	0	13948	32647	
2173	0	13954	32446	
2174	0	13957	32456	
2175	0	13952	32135	
2176	0	13949	32431	
2177	0	13956	32363	
2178	0	13952	32348	
2179	0	13949	32105	
2180	0	13952	32143	
2181	0	13956	32098	
2182	0	13956	31967	
2183	0	13948	31580	
2184	0	13953	31762	
2185	0	13956	31864	
2186	0	13960	31751	
2187	0	13950	31671	
2188	0	13954	31831	
2189	0	13954	31912	
2190	0	13956	32038	
2191	0	13956	31892	
2192	0	13953	32036	
2193	0	13957	32237	
2194	0	13956	32323	
2195	0	13950	32352	
2196	0	13952	32554	
2197	0	13958	33050	
2198	0	13956	32868	
2199	0	13946	32775	
2200	0	13953	33212	
2201	0	13956	33372	
2202	0	13953	33445	
2203	0	13946	33208	
2204	0	13952	33367	
2205	0	13954	33473	
2206	0	13956	33430	
2207	0	13943	33147	
2208	0	13952	33356	
2209	0	13953	33388	
2210	0	13951	33366	
2211	0	13944	33156	
2212	0	13948	33327	
2213	0	13952	33482	
2214	0	13952	33150	
2215	0	13944	33055	
2216	0	13944	33344	
2217	0	13953	33287	
2218	0	13954	33239	
2219	0	13949	32872	
2220	0	13950	33014	
2221	0	13956	33220	
2222	0	13954	33088	
2223	0	13944	32794	
2224	0	13950	33000	
2225	0	13956	33055	
2226	0	13952	33111	
2227	0	13949	32822	
2228	0	13948	32900	
2229	0	13957	32953	
2230	0	13952	33057	
2231	0	13948	32839	
2232	0	13949	32844	
2233	0	13956	33199	
2234	0	13952	32951	
2235	0	13948	32768	
2236	0	13952	33031	
2237	0	13952	32991	
2238	0	13952	32919	
2239	0	13941	32802	
2240	0	13949	33113	
2241	0	13953	33072	
2242	0	13952	32927	
2243	0	13944	32772	
2244	0	13948	33068	
2245	0	13952	32966	
2246	0	13952	32903	
2247	0	13948	32599	
2248	0	13952	32858	
2249	0	13952	32988	
2250	0	13952	32878	
2251	0	13944	32695	
2252	0	13946	32967	
2253	0	13953	32933	
2254	0	13949	33000	
2255	0	13944	32672	
2256	0	13946	32866	
2257	0	13954	32746	
2258	0	13954	33012	
2259	0	13945	32677	
2260	0	13949	32652	
2261	0	13952	32497	
2262	0	13953	32423	
2263	0	13944	32477	
2264	0	13952	32936	
2265	0	13954	32876	
2266	0	13956	32557	
2267	0	13948	32117	
2268	0	13952	32339	
2269	0	13952	31917	
2270	0	13957	31897	
2271	0	13946	32130	
2272	0	13946	32545	
2273	0	13952	32716	
2274	0	13952	33156	
2275	0	13944	32887	
2276	0	13949	33028	
2277	0	13948	33359	
2278	0	13948	33273	
2279	0	13945	32677	
2280	0	13944	33101	
2281	0	13948	33191	
2282	0	13952	33052	
2283	0	13940	32894	
2284	0	13942	33103	
2285	0	13948	33182	
2286	0	13952	33172	
2287	0	13946	33208	
2288	0	13946	33437	
2289	0	13954	32086	
2290	0	13957	29028	
2291	0	13956	26485	
2292	0	13964	25925	
2293	0	13968	26423	
2294	0	13964	28588	
2295	0	13946	31560	
2296	0	13940	34988	
2297	0	13941	36037	
2298	0	13944	35598	
2299	0	13938	35156	
2300	0	13938	35101	
2301	0	13944	34520	
2302	0	13944	33884	
2303	0	13937	33467	
2304	0	13942	33516	
2305	0	13944	33415	
2306	0	13946	33280	
2307	0	13938	33003	
2308	0	13938	33140	
2309	0	13952	33232	
2310	0	13946	32902	
2311	0	13940	32700	
2312	0	13944	32848	
2313	0	13944	32951	
2314	0	13948	32869	
2315	0	13944	32537	
2316	0	13942	32815	
2317	0	13944	32773	
2318	0	13944	32772	
2319	0	13936	32428	
2320	0	13944	32636	
2321	0	13945	32588	
2322	0	13946	32580	
2323	0	13938	32432	
2324	0	13944	32391	
2325	0	13948	32575	
2326	0	13944	32497	
2327	0	13940	32252	
2328	0	13945	32339	
2329	0	13949	32374	
2330	0	13948	32403	
2331	0	13940	31956	
2332	0	13939	32031	
2333	0	13948	32094	
2334	0	13944	31854	
2335	0	13945	31580	
2336	0	13948	31828	
2337	0	13950	31936	
2338	0	13950	31751	
2339	0	13948	31528	
2340	0	13944	31839	
2341	0	13952	31798	
2342	0	13948	31751	
2343	0	13944	31802	
2344	0	13946	32007	
2345	0	13943	31988	
2346	0	13946	32284	
2347	0	13944	32154	
2348	0	13944	32599	
2349	0	13950	32668	
2350	0	13949	32718	
2351	0	13944	32718	
2352	0	13940	32923	
2353	0	13946	33301	
2354	0	13948	33172	
2355	0	13940	32997	
2356	0	13944	33216	
2357	0	13946	33556	
2358	0	13949	33536	
2359	0	13937	33305	
2360	0	13945	33479	
2361	0	13945	33468	
2362	0	13950	33136	
2363	0	13939	33287	
2364	0	13941	33190	
2365	0	13942	33396	
2366	0	13947	33186	
2367	0	13940	33073	
2368	0	13944	33461	
2369	0	13945	33286	
2370	0	13944	33349	
2371	0	13940	32988	
2372	0	13944	33121	
2373	0	13948	33157	
2374	0	13945	32926	
2375	0	13937	32806	
2376	0	13944	32921	
2377	0	13946	33164	
2378	0	13948	32999	
2379	0	13940	32765	
2380	0	13940	33118	
2381	0	13946	33002	
2382	0	13952	32889	
2383	0	13940	32775	
2384	0	13944	32964	
2385	0	13946	32961	
2386	0	13944	33012	
2387	0	13936	32677	
2388	0	13939	33026	
2389	0	13944	32964	
2390	0	13946	32672	
2391	0	13936	32556	
2392	0	13940	32961	
2393	0	13940	33064	
2394	0	13947	32900	
2395	0	13936	32560	
2396	0	13940	32917	
2397	0	13944	32977	
2398	0	13944	32954	
2399	0	13940	32607	
2400	0	13940	32833	
2401	0	13938	33005	
2402	0	13943	33061	
2403	0	13940	32575	
2404	0	13936	32908	
2405	0	13944	32903	
2406	0	13942	32852	
2407	0	13936	32652	
2408	0	13936	32836	
2409	0	13942	32845	
2410	0	13944	32852	
2411	0	13932	32764	
2412	0	13940	32760	
2413	0	13944	32791	
2414	0	13942	32712	
2415	0	13936	32614	
2416	0	13937	32876	
2417	0	13944	32942	
2418	0	13944	32629	
2419	0	13936	32135	
2420	0	13940	32596	
2421	0	13942	32613	
2422	0	13944	32666	
2423	0	13944	32543	
2424	0	13941	32607	
2425	0	13946	32591	
2426	0	13944	32221	
2427	0	13938	31773	
2428	0	13940	31974	
2429	0	13944	32314	
2430	0	13941	32308	
2431	0	13936	32473	
2432	0	13941	32774	
2433	0	13942	33169	
2434	0	13938	33248	
2435	0	13933	32986	
2436	0	13936	33156	
2437	0	13936	33210	
2438	0	13940	33124	
2439	0	13934	32824	
2440	0	13940	33062	
2441	0	13940	33250	
2442	0	13940	33018	
2443	0	13933	32943	
2444	0	13932	33311	
2445	0	13941	33516	
2446	0	13943	33651	
2447	0	13936	32729	
2448	0	13944	30452	
2449	0	13952	27948	
2450	0	13956	26300	
2451	0	13952	25810	
2452	0	13956	27892	
2453	0	13950	30054	
2454	0	13940	33076	
2455	0	13933	35444	
2456	0	13930	35959	
2457	0	13930	35591	
2458	0	13933	35138	
2459	0	13928	34708	
2460	0	13933	34328	
2461	0	13932	33974	
2462	0	13936	33584	
2463	0	13932	33359	
2464	0	13932	33229	
2465	0	13938	33299	
2466	0	13936	33276	
2467	0	13930	32915	
2468	0	13936	32766	
2469	0	13936	33047	
2470	0	13937	33210	
2471	0	13932	32861	
2472	0	13934	32967	
2473	0	13940	33016	
2474	0	13940	32855	
2475	0	13928	32556	
2476	0	13936	32812	
2477	0	13936	32670	
2478	0	13937	32696	
2479	0	13932	32537	
2480	0	13932	32708	
2481	0	13944	32725	
2482	0	13938	32519	
2483	0	13932	32373	
2484	0	13932	32551	
2485	0	13940	32474	
2486	0	13937	32518	
2487	0	13936	32194	
2488	0	13936	32185	
2489	0	13938	32225	
2490	0	13942	32159	
2491	0	13932	31961	
2492	0	13936	32004	
2493	0	13942	31929	
2494	0	13940	31746	
2495	0	13932	31591	
2496	0	13936	31665	
2497	0	13944	31902	
2498	0	13940	31682	
2499	0	13937	31565	
2500	0	13938	31644	
2501	0	13942	31833	
2502	0	13944	31909	
2503	0	13936	31812	
2504	0	13940	31960	
2505	0	13938	32296	
2506	0	13940	32510	
2507	0	13932	32263	
2508	0	13940	32606	
2509	0	13942	33061	
2510	0	13938	33044	
2511	0	13936	32775	
2512	0	13937	33303	
2513	0	13938	33379	
2514	0	13938	33415	
2515	0	13936	33151	
2516	0	13936	33518	
2517	0	13938	33670	
2518	0	13936	33457	
2519	0	13932	33238	
2520	0	13936	33492	
2521	0	13938	33678	
2522	0	13932	33558	
2523	0	13930	33333	
2524	0	13933	33415	
2525	0	13937	33583	
2526	0	13934	33287	
2527	0	13932	33052	
2528	0	13933	33154	
2529	0	13940	33364	
2530	0	13936	33415	
2531	0	13932	33073	
2532	0	13934	33076	
2533	0	13941	33201	
2534	0	13936	33135	
2535	0	13932	32974	
2536	0	13936	33169	
2537	0	13938	33135	
2538	0	13940	32903	
2539	0	13933	32597	
2540	0	13938	32961	
2541	0	13941	32992	
2542	0	13937	32908	
2543	0	13933	32903	
2544	0	13936	33061	
2545	0	13936	33192	
2546	0	13936	33012	
2547	0	13930	32698	
2548	0	13930	32918	
2549	0	13940	33094	
2550	0	13936	33021	
2551	0	13928	32775	
2552	0	13932	33078	
2553	0	13936	33223	
2554	0	13936	32999	
2555	0	13929	32834	
2556	0	13928	32985	
2557	0	13936	33068	
2558	0	13936	32986	
2559	0	13928	32700	
2560	0	13932	32941	
2561	0	13930	33067	
2562	0	13934	32949	
2563	0	13928	32775	
2564	0	13930	33002	
2565	0	13934	33060	
2566	0	13937	32967	
2567	0	13932	32699	
2568	0	13932	32924	
2569	0	13937	32911	
2570	0	13936	32983	
2571	0	13932	32610	
2572	0	13930	32761	
2573	0	13938	32892	
2574	0	13937	32972	
2575	0	13936	32469	
2576	0	13932	32348	
2577	0	13937	32486	
2578	0	13936	32220	
2579	0	13929	32111	
2580	0	13932	32420	
2581	0	13936	32813	
2582	0	13932	32984	
2583	0	13928	32903	
2584	0	13928	33260	
2585	0	13935	33611	
2586	0	13932	33514	
2587	0	13928	33031	
2588	0	13928	33328	
2589	0	13930	33309	
2590	0	13932	33305	
2591	0	13920	33189	
2592	0	13928	33297	
2593	0	13930	33282	
2594	0	13932	33271	
2595	0	13925	33153	
2596	0	13927	33373	
2597	0	13934	33659	
2598	0	13936	32594	
2599	0	13936	29652	
2600	0	13940	27524	
2601	0	13952	26616	
2602	0	13944	26607	
2603	0	13944	29289	
2604	0	13937	31184	
2605	0	13936	34373	
2606	0	13929	36326	
2607	0	13917	35676	
2608	0	13920	35562	
2609	0	13926	35163	
2610	0	13920	34815	
2611	0	13920	33956	
2612	0	13920	33911	
2613	0	13928	33724	
2614	0	13930	33443	
2615	0	13921	32999	
2616	0	13927	33190	
2617	0	13928	33204	
2618	0	13928	32924	
2619	0	13924	32884	
2620	0	13920	32885	
2621	0	13928	32984	
2622	0	13926	32902	
2623	0	13924	32647	
2624	0	13926	32701	
2625	0	13932	32949	
2626	0	13930	32720	
2627	0	13922	32628	
2628	0	13924	32713	
2629	0	13932	32814	
2630	0	13930	32708	
2631	0	13921	32482	
2632	0	13924	32438	
2633	0	13929	32647	
2634	0	13928	32494	
2635	0	13924	32168	
2636	0	13924	32365	
2637	0	13930	32312	
2638	0	13928	32140	
2639	0	13921	31967	
2640	0	13927	32263	
2641	0	13932	32124	
2642	0	13930	31875	
2643	0	13924	31780	
2644	0	13928	31708	
2645	0	13932	31534	
2646	0	13929	31726	
2647	0	13923	31392	
2648	0	13928	31370	
2649	0	13930	31574	
2650	0	13932	31878	
2651	0	13924	31545	
2652	0	13924	31775	
2653	0	13928	32080	
2654	0	13928	31857	
2655	0	13922	31878	
2656	0	13924	32286	
2657	0	13929	32336	
2658	0	13926	32682	
2659	0	13924	32672	
2660	0	13924	33040	
2661	0	13924	33329	
2662	0	13928	33185	
2663	0	13922	33275	
2664	0	13920	33461	
2665	0	13928	33671	
2666	0	13928	33762	
2667	0	13920	33464	
2668	0	13926	33671	
2669	0	13926	33676	
2670	0	13924	33625	
2671	0	13920	33533	
2672	0	13921	33687	
2673	0	13932	33657	
2674	0	13929	33510	
2675	0	13918	33496	
2676	0	13922	33656	
2677	0	13930	33523	
2678	0	13932	33581	
2679	0	13920	33256	
2680	0	13922	33446	
2681	0	13928	33357	
2682	0	13925	33419	
2683	0	13918	33122	
2684	0	13924	33212	
2685	0	13928	33363	
2686	0	13922	33070	
2687	0	13920	32960	
2688	0	13922	33132	
2689	0	13928	33062	
2690	0	13924	33116	
2691	0	13921	32865	
2692	0	13920	33031	
2693	0	13924	33268	
2694	0	13928	32982	
2695	0	13921	32820	
2696	0	13918	33009	
2697	0	13926	33081	
2698	0	13930	32998	
2699	0	13918	32813	
2700	0	13921	33004	
2701	0	13922	33127	
2702	0	13920	33036	
2703	0	13920	32893	
2704	0	13920	33054	
2705	0	13926	33031	
2706	0	13924	33215	
2707	0	13916	32774	
2708	0	13922	32986	
2709	0	13929	32951	
2710	0	13921	32903	
2711	0	13917	32618	
2712	0	13917	32863	
2713	0	13922	33083	
2714	0	13922	33031	
2715	0	13920	32732	
2716	0	13922	32926	
2717	0	13922	33008	
2718	0	13922	32978	
2719	0	13918	32608	
2720	0	13920	32902	
2721	0	13920	33058	
2722	0	13920	32940	
2723	0	13914	32644	
2724	0	13916	32569	
2725	0	13924	32863	
2726	0	13928	32808	
2727	0	13914	32558	
2728	0	13924	32856	
2729	0	13924	32725	
2730	0	13928	32728	
2731	0	13922	32751	
2732	0	13922	32987	
2733	0	13926	32775	
2734	0	13924	32336	
2735	0	13922	31910	
2736	0	13920	32105	
2737	0	13928	32406	
2738	0	13924	32497	
2739	0	13914	32231	
2740	0	13916	32788	
2741	0	13923	33226	
2742	0	13920	33301	
2743	0	13913	32914	
2744	0	13916	32987	
2745	0	13916	33256	
2746	0	13918	33091	
2747	0	13912	32854	
2748	0	13916	33071	
2749	0	13920	33108	
2750	0	13920	32908	
2751	0	13912	32896	
2752	0	13916	33277	
2753	0	13918	33313	
2754	0	13924	33578	
2755	0	13921	32689	
2756	0	13924	30689	
2757	0	13929	27822	
2758	0	13938	26003	
2759	0	13936	25089	
2760	0	13936	26348	
2761	0	13932	29461	
2762	0	13924	32748	
2763	0	13906	35381	
2764	0	13908	35655	
2765	0	13912	35758	
2766	0	13916	35220	
2767	0	13911	34500	
2768	0	13908	34159	
2769	0	13920	33758	
2770	0	13916	33522	
2771	0	13914	33477	
2772	0	13911	33460	
2773	0	13916	33413	
2774	0	13916	33306	
2775	0	13913	32900	
2776	0	13914	33137	
2777	0	13917	33224	
2778	0	13920	32980	
2779	0	13914	32692	
2780	0	13914	32791	
2781	0	13916	32916	
2782	0	13920	33026	
2783	0	13910	32745	
2784	0	13911	32870	
2785	0	13917	32807	
2786	0	13916	32695	
2787	0	13909	32366	
2788	0	13910	32892	
2789	0	13920	32852	
2790	0	13920	32756	
2791	0	13909	32458	
2792	0	13914	32604	
2793	0	13916	32798	
2794	0	13920	32460	
2795	0	13912	32335	
2796	0	13914	32476	
2797	0	13920	32487	
2798	0	13922	32345	
2799	0	13913	31788	
2800	0	13913	31991	
2801	0	13926	32074	
2802	0	13920	31781	
2803	0	13914	31502	
2804	0	13916	31836	
2805	0	13918	31769	
2806	0	13921	31884	
2807	0	13916	31718	
2808	0	13916	31704	
2809	0	13921	31997	
2810	0	13924	31892	
2811	0	13912	31802	
2812	0	13914	32071	
2813	0	13920	32248	
2814	0	13921	32168	
2815	0	13916	32192	
2816	0	13912	32719	
2817	0	13920	32988	
2818	0	13920	33000	
2819	0	13914	32967	
2820	0	13916	33204	
2821	0	13918	33378	
2822	0	13917	33508	
2823	0	13912	33228	
2824	0	13915	33358	
2825	0	13916	33538	
2826	0	13916	33504	
2827	0	13908	33227	
2828	0	13910	33338	
2829	0	13914	33321	
2830	0	13920	33233	
2831	0	13916	32984	
2832	0	13912	33141	
2833	0	13916	33312	
2834	0	13920	33132	
2835	0	13908	32939	
2836	0	13910	33119	
2837	0	13918	33316	
2838	0	13911	33175	
2839	0	13909	32817	
2840	0	13908	32928	
2841	0	13912	33205	
2842	0	13912	33192	
2843	0	13910	32802	
2844	0	13909	32922	
2845	0	13916	33332	
2846	0	13912	33026	
2847	0	13909	32903	
2848	0	13912	32809	
2849	0	13912	33015	
2850	0	13913	33103	
2851	0	13909	32789	
2852	0	13908	32709	
2853	0	13912	32964	
2854	0	13913	32798	
2855	0	13909	32660	
2856	0	13912	32714	
2857	0	13912	32871	
2858	0	13912	32980	
2859	0	13908	32740	
2860	0	13905	32865	
2861	0	13913	32950	
2862	0	13914	32824	
2863	0	13908	32558	
2864	0	13908	32932	
2865	0	13910	32903	
2866	0	13909	32849	
2867	0	13908	32517	
2868	0	13908	32646	
2869	0	13912	32944	
2870	0	13912	32959	
2871	0	13910	32702	
2872	0	13912	32680	
2873	0	13912	32715	
2874	0	13916	32824	
2875	0	13910	32686	
2876	0	13907	32729	
2877	0	13913	32680	
2878	0	13912	32818	
2879	0	13906	32383	
2880	0	13912	32481	
2881	0	13914	32681	
2882	0	13916	32599	
2883	0	13912	32332	
2884	0	13910	32680	
2885	0	13914	32628	
2886	0	13916	32771	
2887	0	13913	32615	
2888	0	13908	32764	
2889	0	13921	32364	
2890	0	13920	32388	
2891	0	13912	31949	
2892	0	13912	31986	
2893	0	13916	32423	
2894	0	13918	32372	
2895	0	13908	32460	
2896	0	13910	32934	
2897	0	13912	32940	
2898	0	13912	33095	
2899	0	13906	32944	
2900	0	13910	33017	
2901	0	13912	33071	
2902	0	13913	33096	
2903	0	13904	32822	
2904	0	13906	33015	
2905	0	13916	32980	
2906	0	13908	32903	
2907	0	13904	33031	
2908	0	13909	33120	
2909	0	13912	33415	
2910	0	13912	33508	
2911	0	13910	32493	
2912	0	13920	30048	
2913	0	13924	27239	
2914	0	13932	25940	
2915	0	13928	25380	
2916	0	13924	27068	
2917	0	13918	30132	
2918	0	13912	33407	
2919	0	13898	35591	
2920	0	13900	35676	
2921	0	13904	35725	
2922	0	13906	35164	
2923	0	13902	34464	
2924	0	13900	34091	
2925	0	13912	33840	
2926	0	13904	33655	
2927	0	13902	33070	
2928	0	13900	33236	
2929	0	13908	33447	
2930	0	13908	33198	
2931	0	13900	33129	
2932	0	13905	33054	
2933	0	13908	33152	
2934	0	13908	32973	
2935	0	13904	32672	
2936	0	13903	33045	
2937	0	13909	32995	
2938	0	13910	33020	
2939	0	13902	32710	
2940	0	13904	32758	
2941	0	13908	33037	
2942	0	13908	32934	
2943	0	13900	32515	
2944	0	13904	32586	
2945	0	13905	32741	
2946	0	13908	32720	
2947	0	13904	32463	
2948	0	13904	32519	
2949	0	13908	32759	
2950	0	13908	32506	
2951	0	13904	32357	
2952	0	13906	32364	
2953	0	13912	32373	
2954	0	13912	32162	
2955	0	13904	32003	
2956	0	13904	32224	
2957	0	13910	31935	
2958	0	13912	31892	
2959	0	13908	31623	
2960	0	13904	31728	
2961	0	13914	31904	
2962	0	13912	31788	
2963	0	13904	31696	
2964	0	13909	31895	
2965	0	13912	31895	
2966	0	13914	31856	
2967	0	13908	31866	
2968	0	13908	32027	
2969	0	13912	32358	
2970	0	13910	32532	
2971	0	13906	32205	
2972	0	13911	32793	
2973	0	13912	32982	
2974	0	13908	33013	
2975	0	13906	32916	
2976	0	13904	33155	
2977	0	13909	33543	
2978	0	13908	33455	
2979	0	13904	33250	
2980	0	13904	33367	
2981	0	13908	33564	
2982	0	13910	33447	
2983	0	13904	33282	
2984	0	13905	33169	
2985	0	13912	33380	
2986	0	13912	33319	
2987	0	13904	33149	
2988	0	13904	33362	
2989	0	13909	33456	
2990	0	13908	33382	
2991	0	13902	32989	
2992	0	13904	33169	
2993	0	13910	33130	
2994	0	13908	33216	
2995	0	13900	32993	
2996	0	13902	33301	
2997	0	13906	33150	
2998	0	13912	33263	
2999	0	13898	32833	
3000	0	13900	32932	
3001	0	13908	33095	
3002	0	13911	33045	
3003	0	13900	32773	
3004	0	13904	32938	
3005	0	13904	33049	
3006	0	13904	33007	
3007	0	13901	32812	
3008	0	13899	32827	
3009	0	13904	32934	
3010	0	13904	32927	
3011	0	13900	32789	
3012	0	13900	32848	
3013	0	13906	32903	
3014	0	13906	32749	
3015	0	13898	32775	
3016	0	13896	33020	
3017	0	13900	32954	
3018	0	13906	32868	
3019	0	13898	32668	
3020	0	13896	32801	
3021	0	13909	32764	
3022	0	13904	32854	
3023	0	13896	32685	
3024	0	13894	33004	
3025	0	13906	33066	
3026	0	13906	32885	
3027	0	13896	32647	
3028	0	13896	32828	
3029	0	13900	32828	
3030	0	13905	32852	
3031	0	13898	32656	
3032	0	13897	32766	
3033	0	13902	33084	
3034	0	13904	32967	
3035	0	13896	32718	
3036	0	13900	32732	
3037	0	13900	32800	
3038	0	13908	32598	
3039	0	13896	32428	
3040	0	13900	32634	
3041	0	13902	32697	
3042	0	13904	32682	
3043	0	13898	32276	
3044	0	13900	32826	
3045	0	13902	33114	
3046	0	13908	32747	
3047	0	13900	32476	
3048	0	13900	32198	
3049	0	13904	32479	
3050	0	13904	32263	
3051	0	13897	31943	
3052	0	13898	32303	
3053	0	13896	32724	
3054	0	13901	32774	
3055	0	13896	32927	
3056	0	13896	33246	
3057	0	13900	33229	
3058	0	13900	32980	
3059	0	13892	32926	
3060	0	13896	33136	
3061	0	13894	33117	
3062	0	13897	33076	
3063	0	13888	32957	
3064	0	13889	33052	
3065	0	13894	33109	
3066	0	13896	33268	
3067	0	13892	33199	
3068	0	13896	33415	
3069	0	13900	32934	
3070	0	13904	30841	
3071	0	13904	27800	
3072	0	13910	26240	
3073	0	13916	25799	
3074	0	13913	26958	
3075	0	13900	29387	
3076	0	13896	32655	
3077	0	13888	35847	
3078	0	13896	35841	
3079	0	13888	35443	
3080	0	13888	35391	
3081	0	13896	34796	
3082	0	13896	34471	
3083	0	13892	33628	
3084	0	13888	33534	
3085	0	13898	33520	
3086	0	13896	33312	
3087	0	13890	32952	
3088	0	13892	33023	
3089	0	13896	33234	
3090	0	13902	33121	
3091	0	13894	32952	
3092	0	13892	32800	
3093	0	13896	32947	
3094	0	13899	33020	
3095	0	13892	32612	
3096	0	13893	32772	
3097	0	13900	32894	
3098	0	13900	32949	
3099	0	13896	32559	
3100	0	13890	32657	
3101	0	13894	32944	
3102	0	13898	32621	
3103	0	13893	32444	
3104	0	13892	32623	
3105	0	13898	32519	
3106	0	13898	32513	
3107	0	13896	32336	
3108	0	13900	32287	
3109	0	13896	32447	
3110	0	13896	32252	
3111	0	13897	32049	
3112	0	13900	32108	
3113	0	13904	32219	
3114	0	13904	32120	
3115	0	13899	31912	
3116	0	13893	31647	
3117	0	13900	31895	
3118	0	13902	31816	
3119	0	13896	31546	
3120	0	13894	31749	
3121	0	13900	31900	
3122	0	13901	31698	
3123	0	13896	31589	
3124	0	13897	31847	
3125	0	13904	31923	
3126	0	13904	31945	
3127	0	13896	31897	
3128	0	13893	32243	
3129	0	13900	32558	
3130	0	13897	32509	
3131	0	13896	32569	
3132	0	13894	32833	
3133	0	13896	33053	
3134	0	13901	33165	
3135	0	13890	33107	
3136	0	13892	33365	
3137	0	13892	33487	
3138	0	13898	33359	
3139	0	13888	33070	
3140	0	13888	33320	
3141	0	13893	33441	
3142	0	13894	33404	
3143	0	13888	33109	
3144	0	13888	33177	
3145	0	13892	33468	
3146	0	13892	33396	
3147	0	13888	33187	
3148	0	13886	33082	
3149	0	13890	33195	
3150	0	13893	33329	
3151	0	13888	33165	
3152	0	13886	33187	
3153	0	13892	33255	
3154	0	13892	33140	
3155	0	13888	33094	
3156	0	13890	33156	
3157	0	13898	33072	
3158	0	13893	33068	
3159	0	13886	32868	
3160	0	13888	32979	
3161	0	13889	33090	
3162	0	13897	33148	
3163	0	13888	32687	
3164	0	13888	32988	
3165	0	13893	33031	
3166	0	13892	33109	
3167	0	13888	32870	
3168	0	13888	32967	
3169	0	13894	32968	
3170	0	13890	33109	
3171	0	13892	32961	
3172	0	13890	32900	
3173	0	13892	32828	
3174	0	13896	32972	
3175	0	13885	32775	
3176	0	13882	32964	
3177	0	13894	33106	
3178	0	13890	32940	
3179	0	13884	32728	
3180	0	13890	32716	
3181	0	13896	33024	
3182	0	13894	32807	
3183	0	13885	32627	
3184	0	13884	32837	
3185	0	13892	32877	
3186	0	13892	32847	
3187	0	13884	32654	
3188	0	13884	32798	
3189	0	13886	32910	
3190	0	13884	32903	
3191	0	13884	32541	
3192	0	13880	32729	
3193	0	13885	33089	
3194	0	13888	32705	
3195	0	13881	32492	
3196	0	13882	32644	
3197	0	13889	32736	
3198	0	13888	32512	
3199	0	13884	32333	
3200	0	13888	32753	
3201	0	13884	32964	
3202	0	13890	32954	
3203	0	13886	32415	
3204	0	13888	32128	
3205	0	13892	32105	
3206	0	13894	32117	
3207	0	13882	32053	
3208	0	13884	32320	
3209	0	13888	32734	
3210	0	13892	32928	
3211	0	13882	32885	
3212	0	13885	33234	
3213	0	13889	33117	
3214	0	13892	33186	
3215	0	13885	33260	
3216	0	13886	33222	
3217	0	13888	33319	
3218	0	13892	33004	
3219	0	13884	32942	
3220	0	13886	33095	
3221	0	13894	33173	
3222	0	13891	33215	
3223	0	13889	33154	
3224	0	13896	33558	
3225	0	13898	32972	
3226	0	13906	30904	
3227	0	13904	27884	
3228	0	13904	26485	
3229	0	13912	26382	
3230	0	13912	28033	
3231	0	13908	29941	
3232	0	13897	32716	
3233	0	13894	35713	
3234	0	13898	35719	
3235	0	13892	35630	
3236	0	13885	34935	
3237	0	13892	34812	
3238	0	13896	34247	
3239	0	13890	33700	
3240	0	13889	33448	
3241	0	13892	33334	
3242	0	13896	33415	
3243	0	13892	33067	
3244	0	13894	33273	
3245	0	13897	33175	
3246	0	13900	32806	
3247	0	13892	32699	
3248	0	13888	32901	
3249	0	13896	33071	
3250	0	13896	32964	
3251	0	13894	32759	
3252	0	13892	32759	
3253	0	13898	32926	
3254	0	13896	32833	
3255	0	13885	32344	
3256	0	13892	32700	
3257	0	13894	32807	
3258	0	13896	32644	
3259	0	13889	32399	
3260	0	13890	32684	
3261	0	13897	32552	
3262	0	13892	32639	
3263	0	13890	32439	
3264	0	13888	32359	
3265	0	13896	32320	
3266	0	13892	32605	
3267	0	13886	32100	
3268	0	13889	32101	
3269	0	13894	32028	
3270	0	13896	31847	
3271	0	13891	31656	
3272	0	13888	31822	
3273	0	13896	31742	
3274	0	13893	31799	
3275	0	13890	31517	
3276	0	13888	31468	
3277	0	13889	31701	
3278	0	13900	31722	
3279	0	13892	31544	
3280	0	13888	31725	
3281	0	13896	32102	
3282	0	13890	31990	
3283	0	13888	32004	
3284	0	13888	32140	
3285	0	13890	32505	
3286	0	13892	32568	
3287	0	13889	32620	
3288	0	13886	32982	
3289	0	13896	33167	
3290	0	13896	33138	
3291	0	13886	33314	
3292	0	13884	33463	
3293	0	13890	33481	
3294	0	13889	33628	
3295	0	13888	33382	
3296	0	13884	33504	
3297	0	13888	33605	
3298	0	13894	33572	
3299	0	13886	33429	
3300	0	13888	33560	
3301	0	13892	33678	
3302	0	13893	33373	
3303	0	13884	33233	
3304	0	13886	33324	
3305	0	13892	33364	
3306	0	13888	33543	
3307	0	13882	33157	
3308	0	13884	33170	
3309	0	13889	33170	
3310	0	13892	33312	
3311	0	13885	33063	
3312	0	13888	33060	
3313	0	13888	33231	
3314	0	13888	33141	
3315	0	13881	32934	
3316	0	13884	32744	
3317	0	13884	33101	
3318	0	13888	33059	
3319	0	13880	32828	
3320	0	13884	33009	
3321	0	13888	33109	
3322	0	13892	33125	
3323	0	13884	32916	
3324	0	13886	33008	
3325	0	13884	33119	
3326	0	13888	33097	
3327	0	13880	32937	
3328	0	13880	33079	
3329	0	13888	33031	
3330	0	13886	33159	
3331	0	13880	32832	
3332	0	13878	33074	
3333	0	13886	33248	
3334	0	13885	33065	
3335	0	13876	32871	
3336	0	13882	33247	
3337	0	13884	33311	
3338	0	13884	32999	
3339	0	13877	32775	
3340	0	13880	32958	
3341	0	13884	33070	
3342	0	13884	33100	
3343	0	13880	32864	
3344	0	13877	32928	
3345	0	13882	33198	
3346	0	13882	32871	
3347	0	13882	32672	
3348	0	13876	32868	
3349	0	13884	32795	
3350	0	13886	33001	
3351	0	13882	32841	
3352	0	13881	32605	
3353	0	13888	32976	
3354	0	13884	33151	
3355	0	13882	32728	
3356	0	13881	32519	
3357	0	13881	32573	
3358	0	13892	32262	
3359	0	13880	32220	
3360	0	13880	32252	
3361	0	13885	32632	
3362	0	13884	32755	
3363	0	13882	32971	
3364	0	13880	33180	
3365	0	13880	33479	
3366	0	13885	33180	
3367	0	13880	33175	
3368	0	13877	33287	
3369	0	13880	33380	
3370	0	13882	33382	
3371	0	13872	33089	
3372	0	13872	32953	
3373	0	13882	33140	
3374	0	13880	33431	
3375	0	13876	33089	
3376	0	13876	33535	
3377	0	13884	33880	
3378	0	13888	32629	
3379	0	13888	29636	
3380	0	13892	27432	
3381	0	13896	26502	
3382	0	13902	26560	
3383	0	13892	28650	
3384	0	13888	30480	
3385	0	13880	33893	
3386	0	13880	35756	
3387	0	13874	35652	
3388	0	13872	35401	
3389	0	13872	35069	
3390	0	13876	34858	
3391	0	13872	34127	
3392	0	13873	33708	
3393	0	13876	33736	
3394	0	13876	33556	
3395	0	13872	33212	
3396	0	13876	33212	
3397	0	13880	33257	
3398	0	13878	32996	
3399	0	13874	32828	
3400	0	13868	33087	
3401	0	13878	33252	
3402	0	13880	33098	
3403	0	13872	32612	
3404	0	13870	32631	
3405	0	13877	33031	
3406	0	13882	32846	
3407	0	13872	32696	
3408	0	13876	32628	
3409	0	13880	32730	
3410	0	13876	32687	
3411	0	13873	32492	
3412	0	13872	32695	
3413	0	13880	32593	
3414	0	13880	32415	
3415	0	13876	32106	
3416	0	13872	32519	
3417	0	13878	32606	
3418	0	13882	32309	
3419	0	13876	32084	
3420	0	13874	32118	
3421	0	13880	32204	
3422	0	13880	32135	
3423	0	13874	31676	
3424	0	13873	31879	
3425	0	13878	31917	
3426	0	13882	31855	
3427	0	13876	31513	
3428	0	13874	31606	
3429	0	13884	31692	
3430	0	13880	31548	
3431	0	13878	31428	
3432	0	13874	31740	
3433	0	13877	31982	
3434	0	13880	32007	
3435	0	13872	32022	
3436	0	13873	32192	
3437	0	13880	32396	
3438	0	13880	32481	
3439	0	13873	32558	
3440	0	13870	32884	
3441	0	13876	33003	
3442	0	13878	33064	
3443	0	13872	33266	
3444	0	13871	33524	
3445	0	13877	33664	
3446	0	13877	33452	
3447	0	13872	33493	
3448	0	13874	33409	
3449	0	13876	33780	
3450	0	13882	33655	
3451	0	13872	33236	
3452	0	13870	33345	
3453	0	13872	33528	
3454	0	13877	33580	
3455	0	13870	33385	
3456	0	13868	33405	
3457	0	13877	33382	
3458	0	13876	33256	
3459	0	13868	33084	
3460	0	13872	33305	
3461	0	13872	33316	
3462	0	13880	33287	
3463	0	13872	33009	
3464	0	13868	32998	
3465	0	13873	33119	
3466	0	13880	33102	
3467	0	13868	32839	
3468	0	13870	33062	
3469	0	13872	32948	
3470	0	13879	33010	
3471	0	13872	32682	
3472	0	13867	32921	
3473	0	13876	33031	
3474	0	13872	32775	
3475	0	13869	32791	
3476	0	13866	32764	
3477	0	13876	33023	
3478	0	13875	33016	
3479	0	13868	32748	
3480	0	13869	32740	
3481	0	13874	33052	
3482	0	13872	32917	
3483	0	13868	32826	
3484	0	13868	32871	
3485	0	13872	32982	
3486	0	13872	32836	
3487	0	13869	32745	
3488	0	13862	32597	
3489	0	13872	32920	
3490	0	13877	32936	
3491	0	13868	32724	
3492	0	13862	32908	
3493	0	13872	32913	
3494	0	13872	32951	
3495	0	13869	32764	
3496	0	13864	32849	
3497	0	13872	32751	
3498	0	13870	32709	
3499	0	13861	32734	
3500	0	13864	32802	
3501	0	13869	32945	
3502	0	13872	32728	
3503	0	13864	32559	
3504	0	13864	32519	
3505	0	13872	32732	
3506	0	13872	32676	
3507	0	13860	32519	
3508	0	13864	32551	
3509	0	13870	32519	
3510	0	13876	32775	
3511	0	13870	32644	
3512	0	13869	32725	
3513	0	13873	32556	
3514	0	13876	32276	
3515	0	13869	32104	
3516	0	13869	31972	
3517	0	13869	32356	
3518	0	13870	32553	
3519	0	13865	32327	
3520	0	13864	32614	
3521	0	13870	33218	
3522	0	13868	33328	
3523	0	13861	33158	
3524	0	13859	32745	
3525	0	13862	33064	
3526	0	13868	33061	
3527	0	13860	32757	
3528	0	13862	32972	
3529	0	13865	33012	
3530	0	13868	33052	
3531	0	13860	32927	
3532	0	13864	33119	
3533	0	13866	33391	
3534	0	13872	33732	
3535	0	13873	32644	
3536	0	13872	30116	
3537	0	13884	27184	
3538	0	13888	25792	
3539	0	13881	25258	
3540	0	13880	26863	
3541	0	13876	30169	
3542	0	13864	33598	
3543	0	13856	35732	
3544	0	13853	35591	
3545	0	13860	35581	
3546	0	13856	35088	
3547	0	13854	34366	
3548	0	13858	34119	
3549	0	13865	34084	
3550	0	13867	33649	
3551	0	13860	33276	
3552	0	13860	33350	
3553	0	13864	33356	
3554	0	13866	33307	
3555	0	13858	32980	
3556	0	13860	33039	
3557	0	13864	33095	
3558	0	13862	33159	
3559	0	13858	32791	
3560	0	13859	32858	
3561	0	13864	33010	
3562	0	13866	32824	
3563	0	13862	32628	
3564	0	13860	33004	
3565	0	13868	33112	
3566	0	13871	32889	
3567	0	13862	32430	
3568	0	13856	32694	
3569	0	13868	32809	
3570	0	13866	32712	
3571	0	13860	32673	
3572	0	13864	32681	
3573	0	13868	32489	
3574	0	13866	32461	
3575	0	13861	32313	
3576	0	13860	32461	
3577	0	13868	32335	
3578	0	13868	32352	
3579	0	13860	32108	
3580	0	13861	32105	
3581	0	13864	32044	
3582	0	13870	31838	
3583	0	13862	31671	
3584	0	13861	31820	
3585	0	13866	31892	
3586	0	13869	31751	
3587	0	13867	31623	
3588	0	13862	32031	
3589	0	13866	32101	
3590	0	13874	31937	
3591	0	13858	31791	
3592	0	13862	31933	
3593	0	13868	32186	
3594	0	13868	32559	
3595	0	13862	32380	
3596	0	13860	32615	
3597	0	13866	32916	
3598	0	13870	33136	
3599	0	13864	33108	
3600	0	13861	33240	
3601	0	13864	33329	
3602	0	13868	33287	
3603	0	13859	33278	
3604	0	13861	33351	
3605	0	13868	33548	
3606	0	13866	33639	
3607	0	13854	33262	
3608	0	13860	33339	
3609	0	13861	33452	
3610	0	13866	33461	
3611	0	13860	33146	
3612	0	13858	33212	
3613	0	13868	33278	
3614	0	13861	33252	
3615	0	13860	33145	
3616	0	13864	33038	
3617	0	13865	33260	
3618	0	13864	33215	
3619	0	13858	33068	
3620	0	13856	33055	
3621	0	13864	33249	
3622	0	13860	33159	
3623	0	13856	33074	
3624	0	13858	33104	
3625	0	13858	33324	
3626	0	13868	33004	
3627	0	13860	32932	
3628	0	13856	32966	
3629	0	13864	33149	
3630	0	13868	33223	
3631	0	13858	32879	
3632	0	13858	32764	
3633	0	13860	32982	
3634	0	13864	32866	
3635	0	13854	32672	
3636	0	13857	32941	
3637	0	13862	33025	
3638	0	13862	32892	
3639	0	13856	32745	
3640	0	13858	32924	
3641	0	13864	33013	
3642	0	13865	32830	
3643	0	13856	32748	
3644	0	13854	32998	
3645	0	13858	32945	
3646	0	13864	32836	
3647	0	13854	32660	
3648	0	13852	32697	
3649	0	13860	33008	
3650	0	13856	32903	
3651	0	13856	32758	
3652	0	13855	32897	
3653	0	13860	32775	
3654	0	13864	32812	
3655	0	13856	32707	
3656	0	13853	32701	
3657	0	13858	32737	
3658	0	13860	32796	
3659	0	13856	32679	
3660	0	13856	32674	
3661	0	13856	32711	
3662	0	13860	32634	
3663	0	13856	32415	
3664	0	13856	32631	
3665	0	13859	32710	
3666	0	13860	33096	
3667	0	13854	32701	
3668	0	13858	32409	
3669	0	13864	32308	
3670	0	13860	32208	
3671	0	13854	32100	
3672	0	13852	32126	
3673	0	13853	32509	
3674	0	13860	32588	
3675	0	13852	32708	
3676	0	13856	32998	
3677	0	13854	33041	
3678	0	13858	33031	
3679	0	13850	32935	
3680	0	13848	33112	
3681	0	13856	33029	
3682	0	13860	32976	
3683	0	13849	32763	
3684	0	13848	33108	
3685	0	13852	33048	
3686	0	13857	33030	
3687	0	13850	32949	
3688	0	13854	33203	
3689	0	13856	33462	
3690	0	13860	32506	
3691	0	13858	29612	
3692	0	13860	27081	
3693	0	13872	25879	
3694	0	13874	25542	
3695	0	13868	27416	
3696	0	13858	30343	
3697	0	13850	33828	
3698	0	13852	35991	
3699	0	13840	35519	
3700	0	13842	35411	
3701	0	13850	35108	
3702	0	13844	34717	
3703	0	13848	33712	
3704	0	13845	33588	
3705	0	13852	33628	
3706	0	13848	33344	
3707	0	13845	33087	
3708	0	13846	32989	
3709	0	13850	33237	
3710	0	13852	33124	
3711	0	13849	32917	
3712	0	13849	32861	
3713	0	13850	32743	
3714	0	13850	32982	
3715	0	13848	32670	
3716	0	13852	32734	
3717	0	13852	32956	
3718	0	13853	32719	
3719	0	13850	32672	
3720	0	13848	32559	
3721	0	13852	32812	
3722	0	13853	32796	
3723	0	13844	32569	
3724	0	13852	32436	
3725	0	13849	32732	
3726	0	13852	32486	
3727	0	13844	32312	
3728	0	13844	32472	
3729	0	13850	32519	
3730	0	13852	32348	
3731	0	13848	32259	
3732	0	13845	32169	
3733	0	13852	32279	
3734	0	13857	32188	
3735	0	13850	31972	
3736	0	13848	31751	
3737	0	13852	31967	
3738	0	13852	31957	
3739	0	13845	31596	
3740	0	13852	31684	
3741	0	13852	31812	
3742	0	13860	31803	
3743	0	13850	31685	
3744	0	13852	31796	
3745	0	13854	32034	
3746	0	13852	32208	
3747	0	13852	32052	
3748	0	13850	32231	
3749	0	13850	32452	
3750	0	13854	32628	
3751	0	13848	32418	
3752	0	13842	32725	
3753	0	13852	33046	
3754	0	13853	33209	
3755	0	13848	33129	
3756	0	13848	33376	
3757	0	13848	33426	
3758	0	13856	33414	
3759	0	13846	33324	
3760	0	13844	33559	
3761	0	13850	33476	
3762	0	13849	33628	
3763	0	13840	33313	
3764	0	13845	33356	
3765	0	13854	33470	
3766	0	13850	33305	
3767	0	13844	33175	
3768	0	13846	33212	
3769	0	13853	33423	
3770	0	13852	33244	
3771	0	13844	33031	
3772	0	13844	33253	
3773	0	13850	33388	
3774	0	13854	33232	
3775	0	13846	32993	
3776	0	13840	33021	
3777	0	13846	33051	
3778	0	13852	33058	
3779	0	13842	32894	
3780	0	13840	33015	
3781	0	13849	33116	
3782	0	13849	33076	
3783	0	13848	32807	
3784	0	13844	32971	
3785	0	13847	32959	
3786	0	13845	32887	
3787	0	13844	32805	
3788	0	13838	32812	
3789	0	13844	32966	
3790	0	13848	33048	
3791	0	13840	32658	
3792	0	13842	32729	
3793	0	13844	33031	
3794	0	13848	33021	
3795	0	13840	32812	
3796	0	13840	32860	
3797	0	13840	33046	
3798	0	13845	32866	
3799	0	13840	32669	
3800	0	13840	33022	
3801	0	13844	32858	
3802	0	13848	32750	
3803	0	13838	32711	
3804	0	13836	32884	
3805	0	13844	33091	
3806	0	13848	33016	
3807	0	13837	32569	
3808	0	13837	32700	
3809	0	13844	32942	
3810	0	13846	32738	
3811	0	13836	32727	
3812	0	13834	32766	
3813	0	13844	32844	
3814	0	13840	32775	
3815	0	13840	32519	
3816	0	13840	32548	
3817	0	13844	32708	
3818	0	13844	32640	
3819	0	13833	32471	
3820	0	13835	32559	
3821	0	13840	32917	
3822	0	13844	32910	
3823	0	13840	32517	
3824	0	13840	32512	
3825	0	13844	32552	
3826	0	13844	32386	
3827	0	13840	32144	
3828	0	13837	32413	
3829	0	13838	32470	
3830	0	13844	32628	
3831	0	13834	32753	
3832	0	13836	33056	
3833	0	13840	33124	
3834	0	13840	33074	
3835	0	13834	33004	
3836	0	13832	33030	
3837	0	13839	33182	
3838	0	13840	33100	
3839	0	13834	32888	
3840	0	13828	32876	
3841	0	13832	32962	
3842	0	13837	33019	
3843	0	13832	33086	
3844	0	13830	33137	
3845	0	13838	33552	
3846	0	13845	32372	
3847	0	13844	29370	
3848	0	13848	26972	
3849	0	13852	25919	
3850	0	13854	25946	
3851	0	13844	27934	
3852	0	13837	30471	
3853	0	13836	34330	
3854	0	13828	35884	
3855	0	13818	35484	
3856	0	13821	35136	
3857	0	13828	34940	
3858	0	13832	34594	
3859	0	13824	33858	
3860	0	13824	33671	
3861	0	13830	33460	
3862	0	13828	33278	
3863	0	13824	33165	
3864	0	13824	33044	
3865	0	13829	33198	
3866	0	13832	33076	
3867	0	13828	32876	
3868	0	13829	32901	
3869	0	13836	32899	
3870	0	13832	32874	
3871	0	13828	32628	
3872	0	13828	32786	
3873	0	13832	32956	
3874	0	13834	32784	
3875	0	13828	32670	
3876	0	13828	32756	
3877	0	13829	32798	
3878	0	13834	32860	
3879	0	13832	32464	
3880	0	13825	32391	
3881	0	13832	32495	
3882	0	13832	32484	
3883	0	13830	32348	
3884	0	13830	32263	
3885	0	13836	32425	
3886	0	13834	32285	
3887	0	13834	32263	
3888	0	13828	32116	
3889	0	13832	32336	
3890	0	13833	31912	
3891	0	13830	31696	
3892	0	13829	31814	
3893	0	13836	31924	
3894	0	13841	31782	
3895	0	13830	31460	
3896	0	13828	31698	
3897	0	13832	31714	
3898	0	13836	31727	
3899	0	13824	31620	
3900	0	13832	31825	
3901	0	13834	32007	
3902	0	13837	31982	
3903	0	13830	32116	
3904	0	13829	32128	
3905	0	13834	32316	
3906	0	13838	32516	
3907	0	13832	32607	
3908	0	13832	32920	
3909	0	13836	33257	
3910	0	13832	33142	
3911	0	13827	33012	
3912	0	13826	33340	
3913	0	13828	33535	
3914	0	13833	33406	
3915	0	13828	33263	
3916	0	13824	33438	
3917	0	13832	33759	
3918	0	13828	33615	
3919	0	13827	33215	
3920	0	13826	33537	
3921	0	13832	33586	
3922	0	13830	33337	
3923	0	13824	33381	
3924	0	13824	33151	
3925	0	13830	33260	
3926	0	13832	33382	
3927	0	13830	33193	
3928	0	13824	33172	
3929	0	13832	33389	
3930	0	13832	33140	
3931	0	13828	33127	
3932	0	13826	32836	
3933	0	13833	33205	
3934	0	13833	33184	
3935	0	13826	33018	
3936	0	13825	32881	
3937	0	13828	33106	
3938	0	13832	33159	
3939	0	13822	32853	
3940	0	13825	32941	
3941	0	13829	33129	
3942	0	13832	33031	
3943	0	13825	32671	
3944	0	13822	32967	
3945	0	13830	33144	
3946	0	13828	33238	
3947	0	13825	32876	
3948	0	13824	32839	
3949	0	13824	32925	
3950	0	13828	33105	
3951	0	13817	32796	
3952	0	13820	32901	
3953	0	13826	32903	
3954	0	13821	33031	
3955	0	13820	32836	
3956	0	13825	32879	
3957	0	13825	32927	
3958	0	13826	32849	
3959	0	13821	32766	
3960	0	13822	32940	
3961	0	13822	32997	
3962	0	13828	33031	
3963	0	13818	32669	
3964	0	13824	32855	
3965	0	13824	32961	
3966	0	13824	32646	
3967	0	13822	32759	
3968	0	13816	32606	
3969	0	13828	32828	
3970	0	13828	32899	
3971	0	13822	32655	
3972	0	13816	32765	
3973	0	13824	32968	
3974	0	13828	33065	
3975	0	13824	32738	
3976	0	13822	32567	
3977	0	13828	32341	
3978	0	13826	32135	
3979	0	13824	32070	
3980	0	13822	32242	
3981	0	13824	32585	
3982	0	13828	32732	
3983	0	13820	32808	
3984	0	13821	33016	
3985	0	13824	33136	
3986	0	13828	33140	
3987	0	13812	33070	
3988	0	13824	33105	
3989	0	13826	33332	
3990	0	13822	33142	
3991	0	13818	32972	
3992	0	13816	33000	
3993	0	13824	32992	
3994	0	13820	33270	
3995	0	13820	33004	
3996	0	13820	33217	
3997	0	13824	33635	
3998	0	13832	32258	
3999	0	13825	29213	
4000	0	13828	27074	
4001	0	13838	26467	
4002	0	13844	26800	
4003	0	13832	29276	
4004	0	13822	31137	
4005	0	13821	34512	
4006	0	13819	35847	
4007	0	13809	35660	
4008	0	13806	35370	
4009	0	13818	35036	
4010	0	13818	34308	
4011	0	13808	33783	
4012	0	13812	33767	
4013	0	13820	33658	
4014	0	13816	33175	
4015	0	13816	33103	
4016	0	13816	33087	
4017	0	13818	32983	
4018	0	13820	33029	
4019	0	13812	32775	
4020	0	13812	32864	
4021	0	13820	32994	
4022	0	13821	32982	
4023	0	13816	32799	
4024	0	13818	32832	
4025	0	13820	32818	
4026	0	13822	32824	
4027	0	13816	32567	
4028	0	13817	32711	
4029	0	13822	32692	
4030	0	13824	32750	
4031	0	13816	32480	
4032	0	13816	32588	
4033	0	13821	32714	
4034	0	13822	32571	
4035	0	13820	32289	
4036	0	13817	32373	
4037	0	13820	32468	
4038	0	13824	32263	
4039	0	13818	31932	
4040	0	13816	32120	
4041	0	13822	32065	
4042	0	13828	31933	
4043	0	13816	31692	
4044	0	13817	31743	
4045	0	13822	31790	
4046	0	13824	31644	
4047	0	13820	31376	
4048	0	13818	31495	
4049	0	13820	31612	
4050	0	13825	31826	
4051	0	13817	31636	
4052	0	13816	31671	
4053	0	13826	31908	
4054	0	13824	32007	
4055	0	13822	32068	
4056	0	13824	32146	
4057	0	13820	32615	
4058	0	13824	32769	
4059	0	13822	32684	
4060	0	13820	32930	
4061	0	13826	33223	
4062	0	13829	33384	
4063	0	13814	33223	
4064	0	13824	33438	
4065	0	13824	33850	
4066	0	13824	33743	
4067	0	13820	33685	
4068	0	13820	33676	
4069	0	13822	33744	
4070	0	13824	33967	
4071	0	13818	33332	
4072	0	13818	33640	
4073	0	13825	33763	
4074	0	13824	33735	
4075	0	13822	33524	
4076	0	13820	33628	
4077	0	13826	33764	
4078	0	13829	33668	
4079	0	13821	33304	
4080	0	13822	33439	
4081	0	13828	33532	
4082	0	13824	33406	
4083	0	13820	33178	
4084	0	13820	33368	
4085	0	13826	33223	
4086	0	13828	33276	
4087	0	13821	33063	
4088	0	13820	33254	
4089	0	13824	33320	
4090	0	13828	33066	
4091	0	13824	32772	
4092	0	13824	33159	
4093	0	13828	33174	
4094	0	13828	33111	
4095	0	13820	32883	
4096	0	13820	33100	
4097	0	13826	33276	
4098	0	13830	33064	
4099	0	13820	32838	
4100	0	13818	32960	
4101	0	13826	33124	
4102	0	13828	33148	
4103	0	13820	32831	
4104	0	13818	33127	
4105	0	13828	33156	
4106	0	13825	33112	
4107	0	13824	32903	
4108	0	13820	33006	
4109	0	13822	32948	
4110	0	13828	33007	
4111	0	13822	32871	
4112	0	13824	33044	
4113	0	13825	33026	
4114	0	13826	33074	
4115	0	13822	32804	
4116	0	13817	33003	
4117	0	13821	33072	
4118	0	13830	33052	
4119	0	13821	32702	
4120	0	13820	32951	
4121	0	13828	32903	
4122	0	13826	32865	
4123	0	13824	32765	
4124	0	13820	32831	
4125	0	13830	32918	
4126	0	13832	32775	
4127	0	13824	32544	
4128	0	13825	32967	
4129	0	13828	33085	
4130	0	13830	33086	
4131	0	13828	32704	
4132	0	13826	32452	
4133	0	13832	32477	
4134	0	13829	32233	
4135	0	13825	32161	
4136	0	13824	32414	
4137	0	13828	32661	
4138	0	13828	32770	
4139	0	13826	33008	
4140	0	13824	33103	
4141	0	13828	33267	
4142	0	13828	33085	
4143	0	13824	32865	
4144	0	13822	33008	
4145	0	13824	33135	
4146	0	13826	33149	
4147	0	13822	33020	
4148	0	13822	32983	
4149	0	13824	33109	
4150	0	13828	33239	
4151	0	13818	33149	
4152	0	13824	33600	
4153	0	13836	33068	
4154	0	13837	30661	
4155	0	13838	27440	
4156	0	13842	25982	
4157	0	13850	25404	
4158	0	13848	26480	
4159	0	13834	29108	
4160	0	13824	32646	
4161	0	13824	35668	
4162	0	13826	35750	
4163	0	13816	35327	
4164	0	13817	35086	
4165	0	13824	34616	
4166	0	13826	34276	
4167	0	13820	33858	
4168	0	13822	33601	
4169	0	13826	33504	
4170	0	13830	33490	
4171	0	13824	32869	
4172	0	13820	32892	
4173	0	13824	33103	
4174	0	13824	33108	
4175	0	13818	32698	
4176	0	13822	32903	
4177	0	13826	32877	
4178	0	13828	32903	
4179	0	13820	32709	
4180	0	13822	32821	
4181	0	13830	33067	
4182	0	13828	32871	
4183	0	13820	32574	
4184	0	13826	32678	
4185	0	13829	32835	
4186	0	13828	32656	
4187	0	13825	32544	
4188	0	13824	32583	
4189	0	13828	32595	
4190	0	13828	32599	
4191	0	13822	32356	
4192	0	13828	32487	
4193	0	13828	32553	
4194	0	13832	32364	
4195	0	13828	32187	
4196	0	13828	32274	
4197	0	13830	31956	
4198	0	13832	31940	
4199	0	13824	31772	
4200	0	13825	31797	
4201	0	13836	31975	
4202	0	13833	31883	
4203	0	13826	31584	
4204	0	13828	31659	
4205	0	13832	31751	
4206	0	13836	31951	
4207	0	13826	31796	
4208	0	13824	31936	
4209	0	13830	32101	
4210	0	13834	31996	
4211	0	13828	31927	
4212	0	13830	32180	
4213	0	13836	32546	
4214	0	13836	32856	
4215	0	13828	32716	
4216	0	13828	32903	
4217	0	13834	33178	
4218	0	13832	33156	
4219	0	13822	33031	
4220	0	13824	33197	
4221	0	13834	33415	
4222	0	13832	33391	
4223	0	13824	33380	
4224	0	13825	33380	
4225	0	13834	33460	
4226	0	13832	33285	
4227	0	13832	33202	
4228	0	13824	33308	
4229	0	13832	33447	
4230	0	13828	33346	
4231	0	13825	33205	
4232	0	13825	33192	
4233	0	13832	33218	
4234	0	13832	33221	
4235	0	13826	32986	
4236	0	13828	32970	
4237	0	13832	33344	
4238	0	13830	33216	
4239	0	13828	33031	
4240	0	13830	33031	
4241	0	13828	33031	
4242	0	13832	33082	
4243	0	13828	32900	
4244	0	13826	32997	
4245	0	13830	33119	
4246	0	13832	32873	
4247	0	13828	32789	
4248	0	13826	32837	
4249	0	13830	32976	
4250	0	13832	32975	
4251	0	13824	32836	
4252	0	13825	32959	
4253	0	13828	32988	
4254	0	13832	32903	
4255	0	13824	32621	
4256	0	13824	32711	
4257	0	13832	32994	
4258	0	13832	32962	
4259	0	13822	32860	
4260	0	13826	32852	
4261	0	13832	32942	
4262	0	13832	32793	
4263	0	13822	32768	
4264	0	13824	32884	
4265	0	13836	33000	
4266	0	13832	32839	
4267	0	13828	32674	
4268	0	13826	32836	
4269	0	13828	32956	
4270	0	13829	32825	
4271	0	13824	32548	
4272	0	13824	32849	
4273	0	13830	32992	
4274	0	13826	32701	
4275	0	13820	32538	
4276	0	13822	32741	
4277	0	13832	32989	
4278	0	13833	33047	
4279	0	13826	32568	
4280	0	13826	32492	
4281	0	13832	32673	
4282	0	13832	32718	
4283	0	13828	32518	
4284	0	13830	32554	
4285	0	13832	32671	
4286	0	13834	32559	
4287	0	13826	32595	
4288	0	13824	33029	
4289	0	13834	32848	
4290	0	13834	32646	
4291	0	13828	32365	
4292	0	13828	32017	
4293	0	13830	32176	
4294	0	13833	32248	
4295	0	13824	32152	
4296	0	13828	32332	
4297	0	13829	32860	
4298	0	13828	33031	
4299	0	13818	33094	
4300	0	13824	33012	
4301	0	13828	33087	
4302	0	13828	33050	
4303	0	13820	33002	
4304	0	13822	32903	
4305	0	13824	33047	
4306	0	13828	32991	
4307	0	13820	32753	
4308	0	13818	33015	
4309	0	13828	33319	
4310	0	13828	33319	
4311	0	13828	33287	
4312	0	13828	32492	
4313	0	13840	29886	
4314	0	13842	27008	
4315	0	13842	25703	
4316	0	13849	25490	
4317	0	13848	27298	
4318	0	13840	30320	
4319	0	13824	33533	
4320	0	13820	35837	
4321	0	13824	35686	
4322	0	13826	35454	
4323	0	13824	35020	
4324	0	13821	34735	
4325	0	13832	33948	
4326	0	13826	33578	
4327	0	13829	33030	
4328	0	13825	33245	
4329	0	13828	33304	
4330	0	13832	33264	
4331	0	13829	33020	
4332	0	13826	33028	
4333	0	13833	33084	
4334	0	13832	32959	
4335	0	13830	32775	
4336	0	13832	33096	
4337	0	13836	33059	
4338	0	13840	32852	
4339	0	13834	32588	
4340	0	13832	32740	
4341	0	13836	32918	
4342	0	13840	32890	
4343	0	13832	32552	
4344	0	13833	32746	
4345	0	13840	32761	
4346	0	13840	32681	
4347	0	13834	32422	
4348	0	13837	32669	
4349	0	13840	32626	
4350	0	13842	32700	
4351	0	13838	32218	
4352	0	13840	32472	
4353	0	13845	32548	
4354	0	13842	32368	
4355	0	13835	32161	
4356	0	13840	32116	
4357	0	13846	32253	
4358	0	13844	31946	
4359	0	13840	31738	
4360	0	13841	31668	
4361	0	13848	31772	
4362	0	13848	31735	
4363	0	13844	31706	
4364	0	13845	31668	
4365	0	13848	31677	
4366	0	13848	31981	
4367	0	13844	31994	
4368	0	13841	31898	
4369	0	13844	32199	
4370	0	13847	32260	
4371	0	13840	32212	
4372	0	13837	32582	
4373	0	13845	32760	
4374	0	13844	32734	
4375	0	13842	32722	
4376	0	13838	32971	
4377	0	13844	33346	
4378	0	13844	33372	
4379	0	13839	33223	
4380	0	13836	33356	
4381	0	13836	33379	
4382	0	13845	33530	
4383	0	13840	33415	
4384	0	13834	33540	
4385	0	13841	33527	
4386	0	13843	33477	
4387	0	13834	33159	
4388	0	13838	33328	
4389	0	13836	33535	
4390	0	13842	33519	
4391	0	13832	33479	
4392	0	13836	32996	
4393	0	13840	32934	
4394	0	13838	32756	
4395	0	13834	32786	
4396	0	13836	33170	
4397	0	13838	33540	
4398	0	13840	33382	
4399	0	13832	33085	
4400	0	13834	32428	
4401	0	13836	32263	
4402	0	13833	32822	
4403	0	13832	32661	
4404	0	13832	32526	
4405	0	13833	32672	
4406	0	13836	32568	
4407	0	13830	32596	
4408	0	13830	32396	
4409	0	13834	33187	
4410	0	13836	33697	
4411	0	13832	33194	
4412	0	13826	33518	
4413	0	13836	33500	
4414	0	13834	32647	
4415	0	13829	32415	
4416	0	13828	32661	
4417	0	13836	33376	
4418	0	13836	33878	
4419	0	13828	33477	
4420	0	13826	33260	
4421	0	13830	33189	
4422	0	13830	33391	
4423	0	13832	32500	
4424	0	13828	32357	
4425	0	13832	33066	
4426	0	13836	33092	
4427	0	13827	32903	
4428	0	13830	32812	
4429	0	13832	33060	
4430	0	13836	33179	
4431	0	13829	33124	
4432	0	13824	33031	
4433	0	13836	32993	
4434	0	13840	32984	
4435	0	13832	32694	
4436	0	13829	32799	
4437	0	13838	32999	
4438	0	13840	32724	
4439	0	13834	32717	
4440	0	13833	32680	
4441	0	13839	32797	
4442	0	13838	32791	
4443	0	13832	32502	
4444	0	13830	32530	
4445	0	13837	32753	
4446	0	13836	32668	
4447	0	13834	32576	
4448	0	13837	32590	
4449	0	13836	32775	
4450	0	13842	32601	
4451	0	13836	32872	
4452	0	13839	32928	
4453	0	13844	32877	
4454	0	13845	32406	
4455	0	13836	32032	
4456	0	13838	32168	
4457	0	13844	32098	
4458	0	13842	32323	
4459	0	13836	32446	
4460	0	13836	32799	
4461	0	13842	33126	
4462	0	13838	32988	
4463	0	13834	32536	
4464	0	13833	33092	
4465	0	13840	32539	
4466	0	13840	30836	
4467	0	13829	31971	
4468	0	13834	33722	
4469	0	13834	34156	
4470	0	13833	33903	
4471	0	13830	33031	
4472	0	13833	32134	
4473	0	13840	32912	
4474	0	13838	32775	
4475	0	13840	31706	
4476	0	13838	31324	
4477	0	13852	28350	
4478	0	13856	26264	
4479	0	13852	25307	
4480	0	13850	27230	
4481	0	13854	29876	
4482	0	13844	32512	
4483	0	13825	36096	
4484	0	13832	36792	
4485	0	13832	35255	
4486	0	13830	35614	
4487	0	13830	36336	
4488	0	13832	34743	
4489	0	13836	32005	
4490	0	13840	32301	
4491	0	13829	32861	
4492	0	13834	33946	
4493	0	13836	34348	
4494	0	13842	32942	
4495	0	13836	32515	
4496	0	13833	32804	
4497	0	13836	32934	
4498	0	13840	34038	
4499	0	13830	33668	
4500	0	13834	33420	
4501	0	13836	33140	
4502	0	13840	32429	
4503	0	13833	32956	
4504	0	13826	32891	
4505	0	13840	32948	
4506	0	13836	32263	
4507	0	13832	32466	
4508	0	13828	32410	
4509	0	13837	32844	
4510	0	13842	32224	
4511	0	13830	33095	
4512	0	13833	33030	
4513	0	13836	32775	
4514	0	13843	32738	
4515	0	13833	32364	
4516	0	13834	33051	
4517	0	13840	33173	
4518	0	13840	32407	
4519	0	13837	31695	
4520	0	13836	31540	
4521	0	13840	31271	
4522	0	13844	31448	
4523	0	13834	31685	
4524	0	13836	31816	
4525	0	13840	32867	
4526	0	13841	32260	
4527	0	13838	32188	
4528	0	13836	31829	
4529	0	13846	30999	
4530	0	13841	30958	
4531	0	13836	32014	
4532	0	13840	32294	
4533	0	13845	31845	
4534	0	13840	32142	
4535	0	13840	32728	
4536	0	13844	32276	
4537	0	13844	33031	
4538	0	13840	33287	
4539	0	13840	32600	
4540	0	13840	31741	
4541	0	13842	32980	
4542	0	13842	34284	
4543	0	13838	34000	
4544	0	13837	33330	
4545	0	13840	33630	
4546	0	13841	33100	
4547	0	13836	33095	
4548	0	13834	34287	
4549	0	13840	32596	
4550	0	13844	31164	
4551	0	13834	32287	
4552	0	13834	35630	
4553	0	13846	36225	
4554	0	13848	33249	
4555	0	13840	32108	
4556	0	13836	33113	
4557	0	13838	34360	
4558	0	13840	33750	
4559	0	13837	33756	
4560	0	13840	31596	
4561	0	13840	31982	
4562	0	13844	32647	
4563	0	13837	34424	
4564	0	13833	34951	
4565	0	13841	34908	
4566	0	13848	34180	
4567	0	13837	32975	
4568	0	13840	31976	
4569	0	13840	31818	
4570	0	13840	33521	
4571	0	13837	31775	
4572	0	13838	33146	
4573	0	13844	35236	
4574	0	13844	34601	
4575	0	13840	32984	
4576	0	13836	32508	
4577	0	13844	33256	
4578	0	13844	33492	
4579	0	13836	33764	
4580	0	13840	33751	
4581	0	13841	33407	
4582	0	13848	33612	
4583	0	13833	33424	
4584	0	13836	33188	
4585	0	13840	33663	
4586	0	13844	33311	
4587	0	13838	33211	
4588	0	13832	33151	
4589	0	13844	33375	
4590	0	13845	33182	
4591	0	13836	33040	
4592	0	13836	32873	
4593	0	13840	32876	
4594	0	13848	32796	
4595	0	13838	32833	
4596	0	13836	32680	
4597	0	13836	32815	
4598	0	13844	32764	
4599	0	13838	32502	
4600	0	13832	32892	
4601	0	13844	32956	
4602	0	13842	32896	
4603	0	13834	32449	
4604	0	13834	32445	
4605	0	13842	32655	
4606	0	13842	32409	
4607	0	13837	32310	
4608	0	13840	32468	
4609	0	13844	32456	
4610	0	13841	32007	
4611	0	13837	32213	
4612	0	13840	32191	
4613	0	13840	32700	
4614	0	13846	32473	
4615	0	13836	32207	
4616	0	13836	31901	
4617	0	13844	31791	
4618	0	13844	31656	
4619	0	13840	31665	
4620	0	13840	31824	
4621	0	13838	31950	
4622	0	13844	31972	
4623	0	13836	32122	
4624	0	13840	32944	
4625	0	13841	32802	
4626	0	13840	32637	
4627	0	13829	32293	
4628	0	13832	32617	
4629	0	13840	32697	
4630	0	13836	32593	
4631	0	13829	32500	
4632	0	13833	32597	
4633	0	13839	32328	
4634	0	13836	32444	
4635	0	13836	32580	
4636	0	13838	32976	
4637	0	13841	33056	
4638	0	13847	31517	
4639	0	13845	28644	
4640	0	13846	26143	
4641	0	13856	25638	
4642	0	13859	26097	
4643	0	13852	28338	
4644	0	13845	30616	
4645	0	13836	34087	
4646	0	13834	35744	
4647	0	13828	35296	
4648	0	13829	35088	
4649	0	13832	34663	
4650	0	13836	34677	
4651	0	13826	33994	
4652	0	13828	33415	
4653	0	13834	33287	
4654	0	13834	33198	
4655	0	13830	33018	
4656	0	13830	32961	
4657	0	13840	32879	
4658	0	13836	32788	
4659	0	13828	32367	
4660	0	13829	32492	
4661	0	13837	32591	
4662	0	13836	32660	
4663	0	13829	32498	
4664	0	13834	32744	
4665	0	13836	32767	
4666	0	13836	32626	
4667	0	13828	32560	
4668	0	13830	32816	
4669	0	13837	32605	
4670	0	13837	32665	
4671	0	13832	32432	
4672	0	13832	32349	
4673	0	13836	32337	
4674	0	13837	32646	
4675	0	13830	32502	
4676	0	13828	32429	
4677	0	13840	32276	
4678	0	13838	32263	
4679	0	13832	32165	
4680	0	13834	32203	
4681	0	13836	32276	
4682	0	13840	32129	
4683	0	13832	32044	
4684	0	13838	31708	
4685	0	13836	31635	
4686	0	13841	31710	
4687	0	13836	31582	
4688	0	13833	31668	
4689	0	13838	31871	
4690	0	13836	31820	
4691	0	13833	31673	
4692	0	13836	31900	
4693	0	13838	31948	
4694	0	13836	31868	
4695	0	13834	31918	
4696	0	13832	32007	
4697	0	13836	32480	
4698	0	13834	32647	
4699	0	13833	32948	
4700	0	13828	32998	
4701	0	13837	33222	
4702	0	13834	33396	
4703	0	13836	33360	
4704	0	13832	33373	
4705	0	13836	33495	
4706	0	13837	33573	
4707	0	13832	33540	
4708	0	13832	33527	
4709	0	13832	33816	
4710	0	13837	33760	
4711	0	13828	33543	
4712	0	13832	33813	
4713	0	13836	33829	
4714	0	13834	33656	
4715	0	13828	33831	
4716	0	13832	33810	
4717	0	13832	33525	
4718	0	13834	33671	
4719	0	13830	33573	
4720	0	13828	33273	
4721	0	13833	33364	
4722	0	13840	33621	
4723	0	13832	32980	
4724	0	13832	33218	
4725	0	13840	33146	
4726	0	13836	33143	
4727	0	13830	32796	
4728	0	13828	32849	
4729	0	13836	33178	
4730	0	13834	33509	
4731	0	13828	33087	
4732	0	13828	32607	
4733	0	13836	32903	
4734	0	13836	33022	
4735	0	13836	32353	
4736	0	13830	32750	
4737	0	13836	33408	
4738	0	13832	32903	
4739	0	13832	32861	
4740	0	13832	32757	
4741	0	13832	33534	
4742	0	13836	33599	
4743	0	13834	32438	
4744	0	13829	32678	
4745	0	13837	32320	
4746	0	13833	31740	
4747	0	13830	32274	
4748	0	13828	33704	
4749	0	13832	33214	
4750	0	13836	33302	
4751	0	13826	33829	
4752	0	13830	33828	
4753	0	13836	33460	
4754	0	13830	33287	
4755	0	13825	33200	
4756	0	13828	32512	
4757	0	13832	31872	
4758	0	13834	32696	
4759	0	13826	33539	
4760	0	13830	33590	
4761	0	13828	32977	
4762	0	13834	32628	
4763	0	13824	32917	
4764	0	13830	32923	
4765	0	13833	32808	
4766	0	13834	32202	
4767	0	13830	32076	
4768	0	13832	33029	
4769	0	13833	33137	
4770	0	13834	33012	
4771	0	13829	32466	
4772	0	13834	32629	
4773	0	13836	32672	
4774	0	13837	32772	
4775	0	13830	32519	
4776	0	13831	32852	
4777	0	13836	31796	
4778	0	13832	32212	
4779	0	13826	33086	
4780	0	13828	34007	
4781	0	13832	33452	
4782	0	13832	33062	
4783	0	13825	33058	
4784	0	13824	33073	
4785	0	13832	32734	
4786	0	13836	32986	
4787	0	13824	32850	
4788	0	13824	33159	
4789	0	13830	32961	
4790	0	13830	33316	
4791	0	13824	33434	
4792	0	13828	32897	
4793	0	13838	31341	
4794	0	13845	28329	
4795	0	13844	26666	
4796	0	13848	26044	
4797	0	13852	27808	
4798	0	13846	30244	
4799	0	13830	32550	
4800	0	13826	35439	
4801	0	13826	35773	
4802	0	13827	35639	
4803	0	13820	34793	
4804	0	13820	34836	
4805	0	13824	34425	
4806	0	13830	33671	
4807	0	13824	33748	
4808	0	13826	33518	
4809	0	13828	33328	
4810	0	13828	32976	
4811	0	13820	33274	
4812	0	13824	32775	
4813	0	13828	32823	
4814	0	13830	32865	
4815	0	13824	33098	
4816	0	13825	32743	
4817	0	13830	32873	
4818	0	13828	32564	
4819	0	13821	32612	
4820	0	13827	32663	
4821	0	13828	32610	
4822	0	13829	32758	
4823	0	13824	32900	
4824	0	13824	32517	
4825	0	13832	32834	
4826	0	13829	32746	
4827	0	13826	32501	
4828	0	13825	32583	
4829	0	13834	32324	
4830	0	13828	32244	
4831	0	13828	32376	
4832	0	13828	32204	
4833	0	13832	32526	
4834	0	13836	32359	
4835	0	13826	32263	
4836	0	13821	32060	
4837	0	13830	31876	
4838	0	13832	31623	
4839	0	13830	31608	
4840	0	13824	31614	
4841	0	13836	31454	
4842	0	13834	31483	
4843	0	13828	31308	
4844	0	13830	31616	
4845	0	13832	31631	
4846	0	13833	31600	
4847	0	13825	31580	
4848	0	13826	31845	
4849	0	13836	32106	
4850	0	13832	32036	
4851	0	13824	32202	
4852	0	13826	32455	
4853	0	13833	32608	
4854	0	13832	32977	
4855	0	13825	33158	
4856	0	13824	33189	
4857	0	13825	33377	
4858	0	13832	33484	
4859	0	13824	33470	
4860	0	13825	33633	
4861	0	13830	33631	
4862	0	13836	34037	
4863	0	13828	33854	
4864	0	13824	33862	
4865	0	13828	33892	
4866	0	13832	33856	
4867	0	13828	33851	
4868	0	13828	33719	
4869	0	13832	33750	
4870	0	13832	33658	
4871	0	13826	33764	
4872	0	13828	33670	
4873	0	13833	33613	
4874	0	13833	33687	
4875	0	13828	33543	
4876	0	13828	33404	
4877	0	13830	33305	
4878	0	13836	33385	
4879	0	13828	33423	
4880	0	13828	33257	
4881	0	13836	33361	
4882	0	13834	32921	
4883	0	13824	33277	
4884	0	13829	33014	
4885	0	13834	33001	
4886	0	13834	33213	
4887	0	13828	33073	
4888	0	13828	33110	
4889	0	13833	32988	
4890	0	13836	33178	
4891	0	13828	32876	
4892	0	13825	32775	
4893	0	13833	32325	
4894	0	13834	32950	
4895	0	13828	33269	
4896	0	13828	32884	
4897	0	13834	33017	
4898	0	13832	33220	
4899	0	13824	33004	
4900	0	13825	33076	
4901	0	13833	32839	
4902	0	13832	32839	
4903	0	13830	32052	
4904	0	13828	32417	
4905	0	13832	33015	
4906	0	13832	33367	
4907	0	13825	32646	
4908	0	13826	32756	
4909	0	13833	32914	
4910	0	13828	33114	
4911	0	13826	32849	
4912	0	13820	32717	
4913	0	13830	32721	
4914	0	13834	33101	
4915	0	13824	33056	
4916	0	13825	32684	
4917	0	13829	32244	
4918	0	13832	32409	
4919	0	13826	31923	
4920	0	13832	32064	
4921	0	13832	33052	
4922	0	13838	32844	
4923	0	13825	32812	
4924	0	13828	32978	
4925	0	13832	33207	
4926	0	13836	32353	
4927	0	13829	32292	
4928	0	13829	32220	
4929	0	13836	31729	
4930	0	13836	32402	
4931	0	13829	32309	
4932	0	13827	32450	
4933	0	13834	32617	
4934	0	13836	32813	
4935	0	13826	33359	
4936	0	13824	33129	
4937	0	13830	33397	
4938	0	13832	32746	
4939	0	13824	32729	
4940	0	13828	33117	
4941	0	13828	32775	
4942	0	13832	32964	
4943	0	13826	33236	
4944	0	13828	33099	
4945	0	13832	33211	
4946	0	13832	33265	
4947	0	13826	33415	
4948	0	13836	32892	
4949	0	13842	29945	
4950	0	13848	27133	
4951	0	13844	25712	
4952	0	13852	25163	
4953	0	13852	26192	
4954	0	13840	29744	
4955	0	13828	33221	
4956	0	13818	35673	
4957	0	13825	35612	
4958	0	13827	35576	
4959	0	13820	35130	
4960	0	13824	34749	
4961	0	13828	34037	
4962	0	13828	33553	
4963	0	13824	33463	
4964	0	13825	33329	
4965	0	13830	33216	
4966	0	13832	32895	
4967	0	13828	32959	
4968	0	13825	32764	
4969	0	13833	33004	
4970	0	13832	32508	
4971	0	13825	32830	
4972	0	13824	32806	
4973	0	13836	32982	
4974	0	13834	33028	
4975	0	13830	32745	
4976	0	13832	32458	
4977	0	13834	32620	
4978	0	13836	32385	
4979	0	13828	32312	
4980	0	13828	32455	
4981	0	13836	32519	
4982	0	13840	32460	
4983	0	13834	32455	
4984	0	13834	32618	
4985	0	13840	32456	
4986	0	13840	32215	
4987	0	13833	32220	
4988	0	13825	32470	
4989	0	13836	32239	
4990	0	13840	32219	
4991	0	13833	32065	
4992	0	13838	31901	
4993	0	13838	31751	
4994	0	13842	31737	
4995	0	13836	31565	
4996	0	13832	31495	
4997	0	13838	31509	
4998	0	13840	31970	
4999	0	13834	31606	
5000	0	13836	31396	
5001	0	13840	31866	
5002	0	13844	31842	
5003	0	13832	31648	
5004	0	13836	31995	
5005	0	13840	31985	
5006	0	13844	32122	
5007	0	13834	32057	
5008	0	13840	32260	
5009	0	13840	32293	
5010	0	13840	32808	
5011	0	13838	32928	
5012	0	13837	32942	
5013	0	13842	33127	
5014	0	13845	33042	
5015	0	13836	33506	
5016	0	13840	33229	
5017	0	13840	33429	
5018	0	13842	33216	
5019	0	13836	33317	
5020	0	13837	33189	
5021	0	13843	33133	
5022	0	13841	33105	
5023	0	13836	33220	
5024	0	13837	33287	
5025	0	13844	33280	
5026	0	13848	33138	
5027	0	13841	33200	
5028	0	13844	33106	
5029	0	13845	33110	
5030	0	13848	33375	
5031	0	13842	32583	
5032	0	13842	33372	
5033	0	13844	33428	
5034	0	13848	33074	
5035	0	13840	33087	
5036	0	13844	32949	
5037	0	13852	33014	
5038	0	13848	33266	
5039	0	13844	33045	
5040	0	13842	33001	
5041	0	13852	33083	
5042	0	13852	33121	
5043	0	13847	33015	
5044	0	13844	33232	
5045	0	13852	33119	
5046	0	13853	33031	
5047	0	13844	33183	
5048	0	13848	32911	
5049	0	13850	33041	
5050	0	13854	33009	
5051	0	13849	32862	
5052	0	13852	32977	
5053	0	13851	32927	
5054	0	13854	32671	
5055	0	13849	32866	
5056	0	13848	32790	
5057	0	13852	32868	
5058	0	13852	32954	
5059	0	13848	32898	
5060	0	13850	33019	
5061	0	13852	32828	
5062	0	13856	33004	
5063	0	13850	32807	
5064	0	13852	32612	
5065	0	13859	32730	
5066	0	13860	33048	
5067	0	13856	32916	
5068	0	13852	32948	
5069	0	13864	32934	
5070	0	13864	33063	
5071	0	13862	32642	
5072	0	13858	32739	
5073	0	13868	32457	
5074	0	13870	32224	
5075	0	13858	32036	
5076	0	13860	32328	
5077	0	13864	32460	
5078	0	13870	32716	
5079	0	13860	32882	
5080	0	13864	33192	
5081	0	13862	33062	
5082	0	13864	33334	
5083	0	13857	33362	
5084	0	13862	33247	
5085	0	13862	33380	
5086	0	13868	33244	
5087	0	13861	33231	
5088	0	13864	33263	
5089	0	13867	33156	
5090	0	13865	33058	
5091	0	13860	33280	
5092	0	13868	33496	
5093	0	13872	33684	
5094	0	13877	32764	
5095	0	13876	29942	
5096	0	13881	27477	
5097	0	13888	26669	
5098	0	13896	26615	
5099	0	13885	28662	
5100	0	13880	30697	
5101	0	13872	33799	
5102	0	13874	36148	
5103	0	13864	35799	
5104	0	13868	35591	
5105	0	13872	35276	
5106	0	13876	34724	
5107	0	13870	34257	
5108	0	13875	34074	
5109	0	13876	33756	
5110	0	13878	33282	
5111	0	13877	33197	
5112	0	13872	33327	
5113	0	13878	33287	
5114	0	13884	33169	
5115	0	13880	33252	
5116	0	13881	33144	
5117	0	13889	33325	
5118	0	13883	32992	
5119	0	13884	32834	
5120	0	13882	33052	
5121	0	13892	33121	
5122	0	13894	32742	
5123	0	13886	32921	
5124	0	13882	32849	
5125	0	13892	32932	
5126	0	13892	32674	
5127	0	13888	32826	
5128	0	13888	32698	
5129	0	13892	32647	
5130	0	13896	32839	
5131	0	13896	32481	
5132	0	13892	32370	
5133	0	13900	32452	
5134	0	13896	32276	
5135	0	13897	32332	
5136	0	13892	32303	
5137	0	13907	32228	
5138	0	13906	31896	
5139	0	13901	31897	
5140	0	13904	31641	
5141	0	13908	31879	
5142	0	13908	31630	
5143	0	13906	31588	
5144	0	13908	31722	
5145	0	13914	31623	
5146	0	13912	31751	
5147	0	13912	31698	
5148	0	13910	31799	
5149	0	13918	32201	
5150	0	13922	31943	
5151	0	13913	32021	
5152	0	13912	32168	
5153	0	13917	32503	
5154	0	13920	32519	
5155	0	13911	32772	
5156	0	13918	32790	
5157	0	13930	33284	
5158	0	13922	33238	
5159	0	13916	33368	
5160	0	13923	33565	
5161	0	13928	33560	
5162	0	13928	33475	
5163	0	13925	33702	
5164	0	13924	33725	
5165	0	13928	33894	
5166	0	13936	33671	
5167	0	13930	33617	
5168	0	13932	33648	
5169	0	13936	33666	
5170	0	13940	33620	
5171	0	13932	33457	
5172	0	13936	33511	
5173	0	13940	33476	
5174	0	13947	33287	
5175	0	13938	33464	
5176	0	13944	33115	
5177	0	13948	33519	
5178	0	13952	33306	
5179	0	13948	33074	
5180	0	13944	33072	
5181	0	13954	33245	
5182	0	13957	33053	
5183	0	13950	33031	
5184	0	13954	32775	
5185	0	13960	33007	
5186	0	13964	32860	
5187	0	13957	32897	
5188	0	13957	32941	
5189	0	13968	32873	
5190	0	13968	32764	
5191	0	13964	32869	
5192	0	13965	33006	
5193	0	13969	32910	
5194	0	13976	33072	
5195	0	13972	32892	
5196	0	13966	32839	
5197	0	13976	33119	
5198	0	13972	32962	
5199	0	13976	32903	
5200	0	13976	32804	
5201	0	13978	32946	
5202	0	13984	32937	
5203	0	13984	32928	
5204	0	13981	33118	
5205	0	13988	32950	
5206	0	13992	32942	
5207	0	13984	32693	
5208	0	13988	32838	
5209	0	13992	32855	
5210	0	13996	32848	
5211	0	13990	32678	
5212	0	13994	32676	
5213	0	13997	32704	
5214	0	14002	32759	
5215	0	13996	32899	
5216	0	14002	32667	
5217	0	14006	32967	
5218	0	14008	32963	
5219	0	14008	32687	
5220	0	14012	32514	
5221	0	14016	32300	
5222	0	14018	32121	
5223	0	14020	31770	
5224	0	14020	32228	
5225	0	14022	32519	
5226	0	14026	32548	
5227	0	14016	32817	
5228	0	14016	33092	
5229	0	14024	33272	
5230	0	14032	33360	
5231	0	14026	32972	
5232	0	14028	32977	
5233	0	14038	33128	
5234	0	14041	33087	
5235	0	14033	32903	
5236	0	14036	33022	
5237	0	14041	33120	
5238	0	14046	33107	
5239	0	14040	33239	
5240	0	14040	33587	
5241	0	14052	33518	
5242	0	14053	32469	
5243	0	14056	30124	
5244	0	14066	27325	
5245	0	14076	25902	
5246	0	14080	25508	
5247	0	14074	27082	
5248	0	14070	29801	
5249	0	14064	33223	
5250	0	14064	35728	
5251	0	14057	35119	
5252	0	14060	35297	
5253	0	14070	34964	
5254	0	14077	34421	
5255	0	14068	33991	
5256	0	14072	33732	
5257	0	14080	33572	
5258	0	14081	33502	
5259	0	14080	33212	
5260	0	14084	33066	
5261	0	14090	33090	
5262	0	14090	33084	
5263	0	14093	33072	
5264	0	14088	32845	
5265	0	14100	32997	
5266	0	14101	32748	
5267	0	14095	32784	
5268	0	14100	32799	
5269	0	14106	32961	
5270	0	14112	32927	
5271	0	14106	32902	
5272	0	14112	32792	
5273	0	14118	32692	
5274	0	14120	32807	
5275	0	14113	32628	
5276	0	14120	32796	
5277	0	14126	32327	
5278	0	14124	32460	
5279	0	14128	32465	
5280	0	14134	32237	
5281	0	14136	32677	
5282	0	14138	32400	
5283	0	14136	32367	
5284	0	14140	32342	
5285	0	14149	32380	
5286	0	14152	32038	
5287	0	14148	31812	
5288	0	14152	31871	
5289	0	14161	31921	
5290	0	14160	31905	
5291	0	14160	31742	
5292	0	14160	31742	
5293	0	14168	31813	
5294	0	14170	31801	
5295	0	14168	31628	
5296	0	14172	31623	
5297	0	14172	32025	
5298	0	14184	32226	
5299	0	14177	32125	
5300	0	14180	32383	
5301	0	14188	32453	
5302	0	14192	32536	
5303	0	14186	32502	
5304	0	14188	32688	
5305	0	14197	32949	
5306	0	14200	33120	
5307	0	14196	33196	
5308	0	14200	33305	
5309	0	14210	33572	
5310	0	14210	33209	
5311	0	14208	33384	
5312	0	14211	33192	
5313	0	14217	33012	
5314	0	14216	32602	
5315	0	14218	32482	
5316	0	14220	32200	
5317	0	14228	32167	
5318	0	14228	32244	
5319	0	14225	32165	
5320	0	14228	32744	
5321	0	14238	32881	
5322	0	14241	32728	
5323	0	14240	32726	
5324	0	14244	33244	
5325	0	14249	33310	
5326	0	14248	33079	
5327	0	14246	32979	
5328	0	14248	33218	
5329	0	14257	33287	
5330	0	14257	33287	
5331	0	14258	33120	
5332	0	14260	33089	
5333	0	14272	33103	
5334	0	14274	33013	
5335	0	14270	33357	
5336	0	14272	33250	
5337	0	14282	33248	
5338	0	14282	33229	
5339	0	14280	33357	
5340	0	14285	33110	
5341	0	14289	33077	
5342	0	14300	33251	
5343	0	14292	33092	
5344	0	14288	32828	
5345	0	14304	33053	
5346	0	14304	33159	
5347	0	14300	33060	
5348	0	14304	32916	
5349	0	14308	32936	
5350	0	14312	33044	
5351	0	14313	32889	
5352	0	14316	33020	
5353	0	14322	32814	
5354	0	14318	33175	
5355	0	14320	33058	
5356	0	14321	32958	
5357	0	14329	33024	
5358	0	14332	32806	
5359	0	14332	32732	
5360	0	14336	32844	
5361	0	14340	32903	
5362	0	14348	32966	
5363	0	14344	32903	
5364	0	14348	32824	
5365	0	14358	32926	
5366	0	14354	32503	
5367	0	14362	32509	
5368	0	14363	32279	
5369	0	14368	32348	
5370	0	14373	32388	
5371	0	14368	32585	
5372	0	14372	32724	
5373	0	14380	32993	
5374	0	14384	33098	
5375	0	14376	33085	
5376	0	14380	33202	
5377	0	14389	33336	
5378	0	14392	33173	
5379	0	14390	33145	
5380	0	14392	33180	
5381	0	14396	33075	
5382	0	14404	33114	
5383	0	14396	32950	
5384	0	14404	33140	
5385	0	14413	33121	
5386	0	14416	33283	
5387	0	14412	33580	
5388	0	14420	32979	
5389	0	14434	30003	
5390	0	14442	27201	
5391	0	14444	25928	
5392	0	14450	25536	
5393	0	14452	27673	
5394	0	14446	30484	
5395	0	14436	33685	
5396	0	14432	35749	
5397	0	14438	35372	
5398	0	14442	35412	
5399	0	14440	34678	
5400	0	14444	34500	
5401	0	14452	33885	
5402	0	14456	33742	
5403	0	14453	33667	
5404	0	14460	33454	
5405	0	14464	33351	
5406	0	14472	33250	
5407	0	14464	33236	
5408	0	14472	33060	
5409	0	14477	33217	
5410	0	14480	33239	
5411	0	14476	33105	
5412	0	14480	32968	
5413	0	14488	32916	
5414	0	14490	32935	
5415	0	14484	32710	
5416	0	14493	32976	
5417	0	14496	32848	
5418	0	14504	32912	
5419	0	14504	32767	
5420	0	14500	32707	
5421	0	14514	32630	
5422	0	14512	32876	
5423	0	14508	32600	
5424	0	14514	32685	
5425	0	14520	32600	
5426	0	14521	32609	
5427	0	14520	32574	
5428	0	14526	32588	
5429	0	14532	32312	
5430	0	14536	32372	
5431	0	14532	32068	
5432	0	14536	31868	
5433	0	14542	31952	
5434	0	14544	31954	
5435	0	14544	31716	
5436	0	14548	31802	
5437	0	14552	31878	
5438	0	14560	31872	
5439	0	14556	31700	
5440	0	14554	31770	
5441	0	14565	31855	
5442	0	14564	32124	
5443	0	14560	31751	
5444	0	14564	31938	
5445	0	14572	32401	
5446	0	14573	32263	
5447	0	14574	32308	
5448	0	14573	32712	
5449	0	14580	32812	
5450	0	14588	32967	
5451	0	14578	33047	
5452	0	14580	33286	
5453	0	14585	33454	
5454	0	14592	33311	
5455	0	14588	33239	
5456	0	14592	33429	
5457	0	14596	33463	
5458	0	14600	33637	
5459	0	14598	33210	
5460	0	14596	33279	
5461	0	14600	33474	
5462	0	14608	33474	
5463	0	14604	33052	
5464	0	14608	33239	
5465	0	14612	33357	
5466	0	14621	33277	
5467	0	14618	33226	
5468	0	14620	33250	
5469	0	14624	33297	
5470	0	14626	33179	
5471	0	14628	32924	
5472	0	14629	33132	
5473	0	14634	33222	
5474	0	14640	32916	
5475	0	14636	33131	
5476	0	14638	33236	
5477	0	14648	33003	
5478	0	14648	33287	
5479	0	14648	33188	
5480	0	14644	33130	
5481	0	14656	32924	
5482	0	14660	33045	
5483	0	14650	32930	
5484	0	14661	32938	
5485	0	14668	33004	
5486	0	14666	32882	
5487	0	14664	33071	
5488	0	14665	32812	
5489	0	14677	32860	
5490	0	14674	32948	
5491	0	14676	32821	
5492	0	14678	32849	
5493	0	14684	32869	
5494	0	14690	32913	
5495	0	14682	32766	
5496	0	14684	32773	
5497	0	14694	32881	
5498	0	14696	32815	
5499	0	14694	32722	
5500	0	14700	32880	
5501	0	14704	32989	
5502	0	14704	32954	
5503	0	14702	32784	
5504	0	14706	32932	
5505	0	14718	32785	
5506	0	14724	32816	
5507	0	14720	32581	
5508	0	14718	32575	
5509	0	14728	32593	
5510	0	14733	32446	
5511	0	14728	32720	
5512	0	14736	33024	
5513	0	14736	32806	
5514	0	14744	32766	
5515	0	14742	32358	
5516	0	14742	32283	
5517	0	14748	32049	
5518	0	14754	32248	
5519	0	14749	32448	
5520	0	14752	32400	
5521	0	14757	32831	
5522	0	14756	33114	
5523	0	14756	33055	
5524	0	14756	33110	
5525	0	14760	33007	
5526	0	14764	32868	
5527	0	14760	33110	
5528	0	14766	32951	
5529	0	14768	33058	
5530	0	14771	32940	
5531	0	14768	32911	
5532	0	14770	33159	
5533	0	14773	33118	
5534	0	14780	33092	
5535	0	14782	33400	
5536	0	14784	33031	
5537	0	14792	31639	
5538	0	14800	28826	
5539	0	14800	26612	
5540	0	14808	26016	
5541	0	14812	26749	
5542	0	14812	28679	
5543	0	14794	31873	
5544	0	14785	35060	
5545	0	14792	35409	
5546	0	14792	35225	
5547	0	14792	34823	
5548	0	14792	34642	
5549	0	14801	34113	
5550	0	14804	33751	
5551	0	14798	33358	
5552	0	14806	33458	
5553	0	14808	33521	
5554	0	14814	33220	
5555	0	14812	33172	
5556	0	14816	33071	
5557	0	14820	33107	
5558	0	14820	33050	
5559	0	14812	33141	
5560	0	14822	32938	
5561	0	14824	32982	
5562	0	14828	32751	
5563	0	14820	32615	
5564	0	14826	33108	
5565	0	14832	32720	
5566	0	14834	32865	
5567	0	14829	32771	
5568	0	14832	32872	
5569	0	14841	32903	
5570	0	14842	32801	
5571	0	14834	32519	
5572	0	14838	32691	
5573	0	14846	32660	
5574	0	14849	32560	
5575	0	14846	32368	
5576	0	14848	32294	
5577	0	14852	32486	
5578	0	14857	32493	
5579	0	14853	32263	
5580	0	14854	32116	
5581	0	14860	32096	
5582	0	14860	32152	
5583	0	14858	31772	
5584	0	14860	31928	
5585	0	14870	31984	
5586	0	14872	31844	
5587	0	14865	31702	
5588	0	14868	31876	
5589	0	14874	31822	
5590	0	14874	31837	
5591	0	14870	32116	
5592	0	14874	31969	
5593	0	14876	32054	
5594	0	14880	32080	
5595	0	14876	32279	
5596	0	14880	32464	
5597	0	14884	32732	
5598	0	14888	32884	
5599	0	14884	32982	
5600	0	14884	33073	
5601	0	14892	33476	
5602	0	14896	33356	
5603	0	14888	33451	
5604	0	14886	33154	
5605	0	14897	33423	
5606	0	14897	33413	
5607	0	14892	33234	
5608	0	14893	33188	
5609	0	14901	33276	
5610	0	14902	33159	
5611	0	14896	33180	
5612	0	14904	33449	
5613	0	14908	33108	
5614	0	14912	33155	
5615	0	14908	33118	
5616	0	14904	33138	
5617	0	14916	33260	
5618	0	14912	33109	
5619	0	14912	32922	
5620	0	14917	33075	
5621	0	14916	33031	
5622	0	14920	32964	
5623	0	14912	32870	
5624	0	14918	32919	
5625	0	14924	32898	
5626	0	14924	32948	
5627	0	14919	32680	
5628	0	14924	32744	
5629	0	14932	32815	
5630	0	14932	32857	
5631	0	14922	32862	
5632	0	14932	32807	
5633	0	14932	32884	
5634	0	14936	32950	
5635	0	14928	32848	
5636	0	14936	32946	
5637	0	14938	32722	
5638	0	14936	32856	
5639	0	14937	32910	
5640	0	14935	32775	
5641	0	14937	32775	
5642	0	14941	32772	
5643	0	14934	32609	
5644	0	14936	32546	
5645	0	14944	32596	
5646	0	14944	32832	
5647	0	14940	32801	
5648	0	14940	32899	
5649	0	14944	32964	
5650	0	14946	32679	
5651	0	14942	32760	
5652	0	14940	32805	
5653	0	14945	32721	
5654	0	14950	32808	
5655	0	14942	32446	
5656	0	14948	32692	
5657	0	14950	32647	
5658	0	14948	32575	
5659	0	14946	32583	
5660	0	14949	32567	
5661	0	14948	32548	
5662	0	14958	32400	
5663	0	14948	32073	
5664	0	14953	32391	
5665	0	14956	32751	
5666	0	14960	32898	
5667	0	14950	32545	
5668	0	14960	32506	
5669	0	14961	32237	
5670	0	14961	31807	
5671	0	14956	31938	
5672	0	14960	32164	
5673	0	14958	32508	
5674	0	14961	32647	
5675	0	14953	32822	
5676	0	14954	32678	
5677	0	14958	32869	
5678	0	14964	32829	
5679	0	14957	32788	
5680	0	14954	32887	
5681	0	14966	32898	
5682	0	14965	32821	
5683	0	14958	32974	
5684	0	14966	32876	
5685	0	14962	32763	
5686	0	14968	32919	
5687	0	14961	32908	
5688	0	14964	33229	
5689	0	14972	33259	
5690	0	14977	32364	
5691	0	14977	29446	
5692	0	14982	27075	
5693	0	14988	25854	
5694	0	14992	26066	
5695	0	14984	28084	
5696	0	14977	30490	
5697	0	14970	33654	
5698	0	14969	35745	
5699	0	14964	35197	
5700	0	14968	35070	
5701	0	14974	34673	
5702	0	14972	34588	
5703	0	14972	33940	
5704	0	14974	33900	
5705	0	14976	33316	
5706	0	14976	33164	
5707	0	14970	33270	
5708	0	14976	33324	
5709	0	14982	33187	
5710	0	14986	33255	
5711	0	14977	33157	
5712	0	14980	33177	
5713	0	14984	32869	
5714	0	14986	32892	
5715	0	14976	32834	
5716	0	14982	32924	
5717	0	14988	33052	
5718	0	14988	33052	
5719	0	14985	32791	
5720	0	14986	32706	
5721	0	14993	33012	
5722	0	14993	32832	
5723	0	14984	32484	
5724	0	14984	32926	
5725	0	14990	32948	
5726	0	14994	32504	
5727	0	14992	32505	
5728	0	14989	32645	
5729	0	14996	32316	
5730	0	14998	32604	
5731	0	14988	32297	
5732	0	14993	32472	
5733	0	14997	32254	
5734	0	15000	32222	
5735	0	14994	31986	
5736	0	14996	31751	
5737	0	15004	31852	
5738	0	15000	31972	
5739	0	14998	32189	
5740	0	15000	31926	
5741	0	15006	31856	
5742	0	15006	31890	
5743	0	14996	32007	
5744	0	15000	31998	
5745	0	15005	32474	
5746	0	15006	32480	
5747	0	15002	32212	
5748	0	15000	32351	
5749	0	15008	32492	
5750	0	15012	32752	
5751	0	15008	33077	
5752	0	15006	33367	
5753	0	15016	33493	
5754	0	15013	33788	
5755	0	15008	33543	
5756	0	15012	33505	
5757	0	15018	33772	
5758	0	15018	33598	
5759	0	15016	33747	
5760	0	15016	33788	
5761	0	15024	33922	
5762	0	15024	33866	
5763	0	15018	33876	
5764	0	15022	33817	
5765	0	15024	33644	
5766	0	15034	33724	
5767	0	15024	33561	
5768	0	15028	33551	
5769	0	15032	33468	
5770	0	15032	33346	
5771	0	15024	33484	
5772	0	15033	33511	
5773	0	15040	33415	
5774	0	15036	33345	
5775	0	15032	33340	
5776	0	15041	33296	
5777	0	15040	33116	
5778	0	15042	33336	
5779	0	15033	33240	
5780	0	15037	32880	
5781	0	15040	32519	
5782	0	15044	33127	
5783	0	15038	33005	
5784	0	15036	32769	
5785	0	15044	32999	
5786	0	15042	33221	
5787	0	15036	33100	
5788	0	15038	33185	
5789	0	15048	33147	
5790	0	15044	32921	
5791	0	15043	32848	
5792	0	15040	33047	
5793	0	15044	33031	
5794	0	15048	32977	
5795	0	15044	32672	
5796	0	15037	32970	
5797	0	15045	33046	
5798	0	15048	32893	
5799	0	15040	32885	
5800	0	15040	32821	
5801	0	15044	32700	
5802	0	15047	32753	
5803	0	15038	32774	
5804	0	15042	32992	
5805	0	15046	32655	
5806	0	15048	33040	
5807	0	15034	32753	
5808	0	15040	32715	
5809	0	15048	32854	
5810	0	15052	32793	
5811	0	15042	32552	
5812	0	15046	32454	
5813	0	15050	32822	
5814	0	15048	33191	
5815	0	15044	33050	
5816	0	15044	32636	
5817	0	15054	32740	
5818	0	15049	32532	
5819	0	15048	32444	
5820	0	15044	32004	
5821	0	15052	32436	
5822	0	15048	32480	
5823	0	15045	32402	
5824	0	15048	32613	
5825	0	15052	33188	
5826	0	15052	33159	
5827	0	15048	33217	
5828	0	15042	32913	
5829	0	15050	33130	
5830	0	15052	32958	
5831	0	15044	32943	
5832	0	15046	32929	
5833	0	15048	33144	
5834	0	15048	32892	
5835	0	15045	33138	
5836	0	15048	33057	
5837	0	15048	33271	
5838	0	15056	33753	
5839	0	15052	32692	
5840	0	15054	30192	
5841	0	15064	27971	
5842	0	15066	27231	
5843	0	15064	26943	
5844	0	15060	28725	
5845	0	15056	30698	
5846	0	15048	33351	
5847	0	15036	35097	
5848	0	15040	34806	
5849	0	15041	34975	
5850	0	15048	34602	
5851	0	15040	34144	
5852	0	15045	33820	
5853	0	15048	33693	
5854	0	15052	33444	
5855	0	15045	33321	
5856	0	15048	33247	
5857	0	15056	33287	
5858	0	15048	33285	
5859	0	15049	33076	
5860	0	15049	33144	
5861	0	15056	33168	
5862	0	15054	33082	
5863	0	15050	33169	
5864	0	15050	33157	
5865	0	15056	33030	
5866	0	15057	32959	
5867	0	15053	32647	
5868	0	15053	32800	
5869	0	15058	32935	
5870	0	15060	32775	
5871	0	15054	32640	
5872	0	15053	32687	
5873	0	15060	32794	
5874	0	15060	32665	
5875	0	15057	32636	
5876	0	15056	32598	
5877	0	15062	32656	
5878	0	15068	32644	
5879	0	15057	32541	
5880	0	15060	32263	
5881	0	15064	32476	
5882	0	15068	32220	
5883	0	15060	31999	
5884	0	15062	31943	
5885	0	15069	31989	
5886	0	15068	32025	
5887	0	15065	31720	
5888	0	15068	31610	
5889	0	15070	31682	
5890	0	15068	31848	
5891	0	15068	31845	
5892	0	15066	31748	
5893	0	15074	31949	
5894	0	15076	31855	
5895	0	15068	32095	
5896	0	15068	32306	
5897	0	15073	32132	
5898	0	15072	32452	
5899	0	15067	32519	
5900	0	15070	32708	
5901	0	15074	32863	
5902	0	15077	33012	
5903	0	15068	33212	
5904	0	15068	33266	
5905	0	15073	33414	
5906	0	15076	33655	
5907	0	15070	33179	
5908	0	15072	33463	
5909	0	15076	33533	
5910	0	15074	33473	
5911	0	15070	33274	
5912	0	15073	33306	
5913	0	15078	33397	
5914	0	15078	33375	
5915	0	15070	33279	
5916	0	15074	33383	
5917	0	15080	33244	
5918	0	15081	33311	
5919	0	15076	33199	
5920	0	15072	33287	
5921	0	15082	33357	
5922	0	15080	33266	
5923	0	15076	33140	
5924	0	15077	33031	
5925	0	15081	33129	
5926	0	15084	32828	
5927	0	15080	32933	
5928	0	15084	32894	
5929	0	15084	32975	
5930	0	15088	32953	
5931	0	15084	33028	
5932	0	15084	33012	
5933	0	15088	32976	
5934	0	15089	32774	
5935	0	15084	32796	
5936	0	15082	32880	
5937	0	15084	32956	
5938	0	15088	33196	
5939	0	15078	32967	
5940	0	15088	32689	
5941	0	15088	32877	
5942	0	15092	32846	
5943	0	15084	32877	
5944	0	15082	32748	
5945	0	15088	33029	
5946	0	15088	32794	
5947	0	15082	32876	
5948	0	15084	32927	
5949	0	15088	32844	
5950	0	15090	32649	
5951	0	15085	32678	
5952	0	15082	32901	
5953	0	15096	32939	
5954	0	15090	32744	
5955	0	15086	32850	
5956	0	15084	32756	
5957	0	15088	32732	
5958	0	15093	32823	
5959	0	15084	32657	
5960	0	15086	32603	
5961	0	15090	32676	
5962	0	15092	32536	
5963	0	15085	32516	
5964	0	15086	32676	
5965	0	15096	32601	
5966	0	15094	33164	
5967	0	15092	32882	
5968	0	15094	32600	
5969	0	15100	32424	
5970	0	15100	32370	
5971	0	15093	31972	
5972	0	15090	32076	
5973	0	15096	32293	
5974	0	15096	32455	
5975	0	15092	32586	
5976	0	15092	32832	
5977	0	15092	32984	
5978	0	15094	33241	
5979	0	15088	33024	
5980	0	15092	33000	
5981	0	15096	33029	
5982	0	15097	33090	
5983	0	15088	33005	
5984	0	15089	32971	
5985	0	15090	33075	
5986	0	15096	33086	
5987	0	15086	32997	
5988	0	15092	32966	
5989	0	15094	33340	
5990	0	15092	33372	
5991	0	15092	32468	
5992	0	15096	30014	
5993	0	15104	27701	
5994	0	15104	26727	
5995	0	15104	26480	
5996	0	15104	28471	
5997	0	15098	30672	
5998	0	15086	33624	
5999	0	15076	35551	
6000	0	15080	35312	
6001	0	15080	35042	
6002	0	15080	34560	
6003	0	15078	34078	
6004	0	15076	33663	
6005	0	15084	33799	
6006	0	15084	33548	
6007	0	15076	33217	
6008	0	15080	32933	
6009	0	15081	33077	
6010	0	15088	32973	
6011	0	15076	33092	
6012	0	15084	32836	
